0 	-0.048421359 	0.0029504023 	2.0277881
2.0100503e-05 	-0.048421359 	0.0029504023 	2.0277881
4.0201005e-05 	-0.048421359 	0.0029504023 	2.0277881
6.0301508e-05 	-0.045310869 	0.035220615 	2.0288272
8.040201e-05 	-0.045310869 	0.035220615 	2.0288272
0.00010050251 	-0.045310869 	0.035220615 	2.0288272
0.00012060302 	-0.03379528 	0.051448864 	2.0281837
0.00014070352 	-0.03379528 	0.051448864 	2.0281837
0.00016080402 	-0.03379528 	0.051448864 	2.0281837
0.00018090452 	-0.030278928 	0.060952995 	2.0172719
0.00020100503 	-0.030278928 	0.060952995 	2.0172719
0.00022110553 	-0.005972649 	0.065263581 	2.0346231
0.00024120603 	-0.0081968366 	0.081224246 	2.0258197
0.00026130653 	-0.0081968366 	0.081224246 	2.0258197
0.00028140704 	-0.034706301 	0.10453759 	2.0076289
0.00030150754 	-0.034706301 	0.10453759 	2.0076289
0.00032160804 	-0.034706301 	0.10453759 	2.0076289
0.00034170854 	-0.0078789019 	0.10882995 	2.0363859
0.00036180905 	-0.0078789019 	0.10882995 	2.0363859
0.00038190955 	-0.0078789019 	0.10882995 	2.0363859
0.00040201005 	-0.0074225408 	0.10328043 	2.0472631
0.00042211055 	-0.0074225408 	0.10328043 	2.0472631
0.00044221106 	-0.0074225408 	0.10328043 	2.0472631
0.00046231156 	-0.0022737568 	0.081743107 	2.0576722
0.00048241206 	-0.0022737568 	0.081743107 	2.0576722
0.00050251256 	-0.0023997626 	0.062036961 	2.0658439
0.00052261307 	-0.0023997626 	0.062036961 	2.0658439
0.00054271357 	-0.0023997626 	0.062036961 	2.0658439
0.00056281407 	-0.010195409 	0.046445149 	2.0645084
0.00058291457 	-0.010195409 	0.046445149 	2.0645084
0.00060301508 	-0.010195409 	0.046445149 	2.0645084
0.00062311558 	-0.014054072 	0.041325034 	2.0508903
0.00064321608 	-0.014054072 	0.041325034 	2.0508903
0.00066331658 	-0.014054072 	0.041325034 	2.0508903
0.00068341709 	-0.015771047 	0.039377864 	2.0518837
0.00070351759 	-0.015771047 	0.039377864 	2.0518837
0.00072361809 	-0.030132451 	0.036258489 	2.0477531
0.00074371859 	-0.030132451 	0.036258489 	2.0477531
0.0007638191 	-0.030132451 	0.036258489 	2.0477531
0.0007839196 	-0.03184656 	0.027528563 	2.0488013
0.0008040201 	-0.03184656 	0.027528563 	2.0488013
0.0008241206 	-0.03184656 	0.027528563 	2.0488013
0.00084422111 	-0.033515852 	0.017868804 	2.0560965
0.00086432161 	-0.033515852 	0.017868804 	2.0560965
0.00088442211 	-0.016593554 	0.016200448 	2.0502113
0.00090452261 	-0.0095087042 	0.0072460682 	2.0411268
0.00092462312 	-0.0095087042 	0.0072460682 	2.0411268
0.00094472362 	-0.016046508 	0.010930373 	2.0334687
0.00096482412 	-0.016046508 	0.010930373 	2.0334687
0.00098492462 	-0.016046508 	0.010930373 	2.0334687
0.0010050251 	-0.0011421713 	0.001840662 	2.0497557
0.0010251256 	-0.012498778 	-0.00015310564 	2.0839697
0.0010452261 	-0.012498778 	-0.00015310564 	2.0839697
0.0010653266 	-0.0018594285 	0.0084191414 	2.1118965
0.0010854271 	-0.0018594285 	0.0084191414 	2.1118965
0.0011055276 	-0.0018594285 	0.0084191414 	2.1118965
0.0011256281 	0.013393373 	0.040727655 	2.0745453
0.0011457286 	0.013393373 	0.040727655 	2.0745453
0.0011658291 	0.013393373 	0.040727655 	2.0745453
0.0011859296 	0.03673195 	0.017671346 	2.0466944
0.0012060302 	0.022091419 	0.051597417 	2.0373034
0.0012261307 	0.022091419 	0.051597417 	2.0373034
0.0012462312 	0.028549901 	0.047551264 	2.0564852
0.0012663317 	0.028549901 	0.047551264 	2.0564852
0.0012864322 	0.028549901 	0.047551264 	2.0564852
0.0013065327 	0.067000289 	0.047038342 	2.0505993
0.0013266332 	0.067000289 	0.047038342 	2.0505993
0.0013467337 	0.067000289 	0.047038342 	2.0505993
0.0013668342 	0.038296457 	0.058427942 	2.0854891
0.0013869347 	0.038296457 	0.058427942 	2.0854891
0.0014070352 	0.038296457 	0.058427942 	2.0854891
0.0014271357 	0.0096694927 	0.022178549 	2.0595233
0.0014472362 	0.0096694927 	0.022178549 	2.0595233
0.0014673367 	0.0096694927 	0.022178549 	2.0595233
0.0014874372 	0.017203109 	0.02705856 	2.00222
0.0015075377 	0.017203109 	0.02705856 	2.00222
0.0015276382 	-0.0041199477 	0.042029258 	2.0023181
0.0015477387 	-0.0041199477 	0.042029258 	2.0023181
0.0015678392 	-0.0041199477 	0.042029258 	2.0023181
0.0015879397 	-0.023784624 	0.043809149 	2.0299094
0.0016080402 	-0.023784624 	0.043809149 	2.0299094
0.0016281407 	-0.023784624 	0.043809149 	2.0299094
0.0016482412 	-0.017577896 	0.022644114 	2.0334903
0.0016683417 	-0.017577896 	0.022644114 	2.0334903
0.0016884422 	0.0038229728 	-0.0020777145 	1.9622684
0.0017085427 	0.0038229728 	-0.0020777145 	1.9622684
0.0017286432 	0.0038229728 	-0.0020777145 	1.9622684
0.0017487437 	0.025242934 	0.014538564 	1.9747351
0.0017688442 	0.025242934 	0.014538564 	1.9747351
0.0017889447 	0.025242934 	0.014538564 	1.9747351
0.0018090452 	0.048353166 	0.025429429 	2.0234519
0.0018291457 	0.048353166 	0.025429429 	2.0234519
0.0018492462 	0.052401995 	0.021167642 	2.0394195
0.0018693467 	0.052401995 	0.021167642 	2.0394195
0.0018894472 	0.052401995 	0.021167642 	2.0394195
0.0019095477 	0.05420113 	0.049880258 	2.0436969
0.0019296482 	0.05420113 	0.049880258 	2.0436969
0.0019497487 	0.039428307 	0.063161929 	1.9976048
0.0019698492 	0.039428307 	0.063161929 	1.9976048
0.0019899497 	0.02922978 	0.021826403 	1.9019503
0.0020100503 	0.02922978 	0.021826403 	1.9019503
0.0020301508 	0.02922978 	0.021826403 	1.9019503
0.0020502513 	0.014918221 	0.024269206 	1.9442187
0.0020703518 	0.014918221 	0.024269206 	1.9442187
0.0020904523 	0.010863758 	-0.0013961103 	1.9587174
0.0021105528 	0.010863758 	-0.0013961103 	1.9587174
0.0021306533 	0.010863758 	-0.0013961103 	1.9587174
0.0021507538 	0.01881142 	-0.012025158 	1.9916565
0.0021708543 	0.01881142 	-0.012025158 	1.9916565
0.0021909548 	0.00889102 	-0.031082072 	2.0052879
0.0022110553 	0.00889102 	-0.031082072 	2.0052879
0.0022311558 	0.010860494 	-0.049390895 	1.9690631
0.0022512563 	0.010860494 	-0.049390895 	1.9690631
0.0022713568 	0.015710273 	-0.054735578 	1.9561672
0.0022914573 	0.015710273 	-0.054735578 	1.9561672
0.0023115578 	0.015710273 	-0.054735578 	1.9561672
0.0023316583 	0.025237615 	-0.056548107 	1.980153
0.0023517588 	0.025237615 	-0.056548107 	1.980153
0.0023718593 	0.030973022 	-0.056809047 	1.9893468
0.0023919598 	0.030973022 	-0.056809047 	1.9893468
0.0024120603 	0.044016596 	-0.046566437 	1.974049
0.0024321608 	0.044016596 	-0.046566437 	1.974049
0.0024522613 	0.04090086 	-0.042495507 	1.9159781
0.0024723618 	0.04090086 	-0.042495507 	1.9159781
0.0024924623 	0.052306662 	-0.043144954 	1.8936206
0.0025125628 	0.052306662 	-0.043144954 	1.8936206
0.0025326633 	0.050202438 	-0.050747873 	1.8823776
0.0025527638 	0.050202438 	-0.050747873 	1.8823776
0.0025728643 	0.044055627 	-0.030042307 	1.8989163
0.0025929648 	0.044055627 	-0.030042307 	1.8989163
0.0026130653 	0.031760236 	0.0015578268 	1.9328272
0.0026331658 	0.031760236 	0.0015578268 	1.9328272
0.0026532663 	0.026381998 	0.0046899175 	1.8992308
0.0026733668 	0.026381998 	0.0046899175 	1.8992308
0.0026934673 	0.021251075 	-0.012886218 	1.8560428
0.0027135678 	0.021251075 	-0.012886218 	1.8560428
0.0027336683 	0.0065873173 	-0.02134781 	1.8446121
0.0027537688 	0.0065873173 	-0.02134781 	1.8446121
0.0027738693 	-0.0052714137 	-0.027294111 	1.8641451
0.0027939698 	-0.0052714137 	-0.027294111 	1.8641451
0.0028140704 	-0.0094139341 	-0.019688806 	1.8579163
0.0028341709 	-0.0094139341 	-0.019688806 	1.8579163
0.0028542714 	-0.0086066779 	-0.016143045 	1.8369137
0.0028743719 	-0.0018057511 	-0.01812425 	1.8138763
0.0028944724 	-0.0018057511 	-0.01812425 	1.8138763
0.0029145729 	0.01111749 	-0.025711135 	1.7917375
0.0029346734 	0.01111749 	-0.025711135 	1.7917375
0.0029547739 	0.017561934 	-0.033086743 	1.7989386
0.0029748744 	0.017561934 	-0.033086743 	1.7989386
0.0029949749 	0.022354051 	-0.045155811 	1.7948242
0.0030150754 	0.038734496 	-0.051691891 	1.7826105
0.0030351759 	0.038734496 	-0.051691891 	1.7826105
0.0030552764 	0.042642671 	-0.047790857 	1.8007237
0.0030753769 	0.042642671 	-0.047790857 	1.8007237
0.0030954774 	0.038517453 	-0.021905147 	1.8079428
0.0031155779 	0.032467729 	0.014840372 	1.8590126
0.0031356784 	0.032467729 	0.014840372 	1.8590126
0.0031557789 	0.0087257538 	0.0435957 	1.8981729
0.0031758794 	0.0087257538 	0.0435957 	1.8981729
0.0031959799 	-0.019745378 	0.039551274 	1.8584044
0.0032160804 	-0.037927422 	-0.016107092 	1.6989941
0.0032361809 	-0.037927422 	-0.016107092 	1.6989941
0.0032562814 	-0.05239257 	-0.083440658 	1.5668851
0.0032763819 	-0.077957119 	-0.052745115 	1.6160016
0.0032964824 	-0.077957119 	-0.052745115 	1.6160016
0.0033165829 	-0.083096292 	0.015816504 	1.7132988
0.0033366834 	-0.087134648 	0.013062818 	1.6934633
0.0033567839 	-0.087134648 	0.013062818 	1.6934633
0.0033768844 	-0.097855369 	-0.034359685 	1.6313539
0.0033969849 	-0.097341103 	-0.020497275 	1.6353947
0.0034170854 	-0.097341103 	-0.020497275 	1.6353947
0.0034371859 	-0.097909562 	0.033712635 	1.6190585
0.0034572864 	-0.10003839 	0.053925858 	1.5671763
0.0034773869 	-0.10774343 	0.03045512 	1.500771
0.0034974874 	-0.10774343 	0.03045512 	1.500771
0.0035175879 	-0.11576621 	0.00016765187 	1.4760189
0.0035376884 	-0.12646095 	-0.030390178 	1.5680032
0.0035577889 	-0.12289436 	0.0065232222 	1.6204781
0.0035778894 	-0.12289436 	0.0065232222 	1.6204781
0.0035979899 	-0.11959456 	0.033227335 	1.5759201
0.0036180905 	-0.1113799 	-0.025901828 	1.5826481
0.003638191 	-0.096022536 	-0.033397051 	1.6432461
0.0036582915 	-0.096022536 	-0.033397051 	1.6432461
0.003678392 	-0.085679436 	0.031020564 	1.6677259
0.0036984925 	-0.090313241 	0.0097674165 	1.6276258
0.003718593 	-0.090110848 	-0.026886323 	1.6524793
0.0037386935 	-0.075710557 	-0.017452424 	1.707
0.003758794 	-0.080758088 	-0.076358661 	1.7236666
0.0037788945 	-0.080758088 	-0.076358661 	1.7236666
0.003798995 	-0.10712204 	-0.041107625 	1.7306977
0.0038190955 	-0.10873912 	0.059609241 	1.7668847
0.003839196 	-0.10429824 	0.074665139 	1.7630753
0.0038592965 	-0.098148609 	0.043126209 	1.6480867
0.003879397 	-0.10068438 	0.018098221 	1.4739653
0.0038994975 	-0.076864562 	0.16593991 	1.2493944
0.003919598 	-0.045168585 	0.040341885 	0.95854115
0.0039396985 	-0.060962826 	-0.078321856 	0.78312816
0.003959799 	-0.023636766 	-0.1579735 	0.67336926
0.0039798995 	-0.015355774 	0.11501608 	0.22825893
0.004 	-0.015355774 	0.11501608 	0.22825893
