0 	-0.0037653097 	8.4526696e-05 	2.0574424
2.0100503e-05 	0.0009621865 	0.011334705 	2.0644878
4.0201005e-05 	0.0009621865 	0.011334705 	2.0644878
6.0301508e-05 	0.0076209522 	0.021483714 	2.0733643
8.040201e-05 	0.0076209522 	0.021483714 	2.0733643
0.00010050251 	0.0076209522 	0.021483714 	2.0733643
0.00012060302 	0.0112177 	0.013345185 	2.0845621
0.00014070352 	0.0112177 	0.013345185 	2.0845621
0.00016080402 	0.0112177 	0.013345185 	2.0845621
0.00018090452 	0.011724306 	0.0036049537 	2.0859428
0.00020100503 	0.011724306 	0.0036049537 	2.0859428
0.00022110553 	0.011724306 	0.0036049537 	2.0859428
0.00024120603 	0.0079133343 	0.0052742444 	2.0823456
0.00026130653 	0.0079133343 	0.0052742444 	2.0823456
0.00028140704 	0.0098038662 	0.01049864 	2.0823478
0.00030150754 	0.0098038662 	0.01049864 	2.0823478
0.00032160804 	0.0098038662 	0.01049864 	2.0823478
0.00034170854 	0.0041990185 	0.016766551 	2.0809907
0.00036180905 	0.0041990185 	0.016766551 	2.0809907
0.00038190955 	0.0041990185 	0.016766551 	2.0809907
0.00040201005 	0.006926501 	0.025331562 	2.0736869
0.00042211055 	0.006926501 	0.025331562 	2.0736869
0.00044221106 	0.006926501 	0.025331562 	2.0736869
0.00046231156 	0.0098331447 	0.02543374 	2.0669621
0.00048241206 	0.0098331447 	0.02543374 	2.0669621
0.00050251256 	0.013841298 	0.029978533 	2.0702264
0.00052261307 	0.013841298 	0.029978533 	2.0702264
0.00054271357 	0.013841298 	0.029978533 	2.0702264
0.00056281407 	0.013256581 	0.031450183 	2.0639692
0.00058291457 	0.013256581 	0.031450183 	2.0639692
0.00060301508 	0.013256581 	0.031450183 	2.0639692
0.00062311558 	0.0086469939 	0.032740685 	2.0470438
0.00064321608 	0.0086469939 	0.032740685 	2.0470438
0.00066331658 	0.0086469939 	0.032740685 	2.0470438
0.00068341709 	-0.0010874277 	0.027224498 	2.0588083
0.00070351759 	-0.0010874277 	0.027224498 	2.0588083
0.00072361809 	-0.0011777178 	0.028574915 	2.0737654
0.00074371859 	-0.0011777178 	0.028574915 	2.0737654
0.0007638191 	-0.0011777178 	0.028574915 	2.0737654
0.0007839196 	-0.00018290346 	0.032209023 	2.0626297
0.0008040201 	-0.00018290346 	0.032209023 	2.0626297
0.0008241206 	-0.00018290346 	0.032209023 	2.0626297
0.00084422111 	0.0024979853 	0.026564176 	2.0527291
0.00086432161 	0.0024979853 	0.026564176 	2.0527291
0.00088442211 	0.0024979853 	0.026564176 	2.0527291
0.00090452261 	-0.00084238007 	0.023895399 	2.0587344
0.00092462312 	-0.00084238007 	0.023895399 	2.0587344
0.00094472362 	-0.0025641104 	0.012508161 	2.0386192
0.00096482412 	-0.0025641104 	0.012508161 	2.0386192
0.00098492462 	-0.0025641104 	0.012508161 	2.0386192
0.0010050251 	0.007310217 	0.013444013 	2.0117288
0.0010251256 	0.007310217 	0.013444013 	2.0117288
0.0010452261 	0.007310217 	0.013444013 	2.0117288
0.0010653266 	0.02703613 	0.024304195 	2.0464993
0.0010854271 	0.02703613 	0.024304195 	2.0464993
0.0011055276 	0.02703613 	0.024304195 	2.0464993
0.0011256281 	0.049102877 	0.020803423 	2.0548873
0.0011457286 	0.049102877 	0.020803423 	2.0548873
0.0011658291 	0.031274852 	0.029425631 	2.0517186
0.0011859296 	0.027665954 	0.010695822 	2.0443361
0.0012060302 	0.062529612 	-0.010835671 	2.060393
0.0012261307 	0.062529612 	-0.010835671 	2.060393
0.0012462312 	0.054029927 	-0.020874585 	2.1398986
0.0012663317 	0.054029927 	-0.020874585 	2.1398986
0.0012864322 	0.054029927 	-0.020874585 	2.1398986
0.0013065327 	0.044875558 	-0.044679054 	2.1320763
0.0013266332 	0.044875558 	-0.044679054 	2.1320763
0.0013467337 	0.044875558 	-0.044679054 	2.1320763
0.0013668342 	0.026640104 	-0.056778781 	2.0566234
0.0013869347 	0.026640104 	-0.056778781 	2.0566234
0.0014070352 	0.020201914 	-0.04026053 	2.016741
0.0014271357 	0.026486945 	-0.012563745 	1.9973141
0.0014472362 	0.041242496 	-0.046459407 	2.0885816
0.0014673367 	0.041242496 	-0.046459407 	2.0885816
0.0014874372 	0.012827616 	-0.035935721 	2.0142529
0.0015075377 	0.012827616 	-0.035935721 	2.0142529
0.0015276382 	0.0093963563 	-0.056029625 	2.0051993
0.0015477387 	0.0093963563 	-0.056029625 	2.0051993
0.0015678392 	0.0093963563 	-0.056029625 	2.0051993
0.0015879397 	-0.0070050833 	-0.056078763 	1.9711975
0.0016080402 	-0.0070050833 	-0.056078763 	1.9711975
0.0016281407 	-0.0070050833 	-0.056078763 	1.9711975
0.0016482412 	-0.014037723 	-0.025385993 	1.8821952
0.0016683417 	-0.014037723 	-0.025385993 	1.8821952
0.0016884422 	-0.014419009 	-0.012281694 	1.8863662
0.0017085427 	-0.014419009 	-0.012281694 	1.8863662
0.0017286432 	-0.014419009 	-0.012281694 	1.8863662
0.0017487437 	-0.038263044 	-0.0089949193 	1.8591443
0.0017688442 	-0.038263044 	-0.0089949193 	1.8591443
0.0017889447 	-0.038263044 	-0.0089949193 	1.8591443
0.0018090452 	-0.060143275 	0.0073783284 	1.8796536
0.0018291457 	-0.060143275 	0.0073783284 	1.8796536
0.0018492462 	-0.040275551 	0.017255683 	1.8842887
0.0018693467 	-0.040275551 	0.017255683 	1.8842887
0.0018894472 	-0.040275551 	0.017255683 	1.8842887
0.0019095477 	-0.030124181 	0.051385598 	1.9021775
0.0019296482 	-0.030124181 	0.051385598 	1.9021775
0.0019497487 	-0.055805093 	0.03402771 	1.8614951
0.0019698492 	-0.055805093 	0.03402771 	1.8614951
0.0019899497 	-0.059677365 	-0.0089323091 	1.84799
0.0020100503 	-0.059677365 	-0.0089323091 	1.84799
0.0020301508 	-0.059677365 	-0.0089323091 	1.84799
0.0020502513 	-0.047072366 	-0.01335773 	1.8924063
0.0020703518 	-0.047072366 	-0.01335773 	1.8924063
0.0020904523 	-0.03958395 	-0.019704645 	1.9384171
0.0021105528 	-0.03958395 	-0.019704645 	1.9384171
0.0021306533 	-0.03958395 	-0.019704645 	1.9384171
0.0021507538 	-0.036094862 	-0.010727803 	1.9351142
0.0021708543 	-0.036094862 	-0.010727803 	1.9351142
0.0021909548 	-0.025708226 	-0.0211021 	1.894323
0.0022110553 	-0.025708226 	-0.0211021 	1.894323
0.0022311558 	-0.013002877 	-0.027759293 	1.8417287
0.0022512563 	-0.013002877 	-0.027759293 	1.8417287
0.0022713568 	-0.016988651 	-0.03934509 	1.8677751
0.0022914573 	-0.016988651 	-0.03934509 	1.8677751
0.0023115578 	-0.016988651 	-0.03934509 	1.8677751
0.0023316583 	-0.0087354489 	-0.052519571 	1.9114027
0.0023517588 	-0.0087354489 	-0.052519571 	1.9114027
0.0023718593 	0.0061157376 	-0.039240722 	1.9143402
0.0023919598 	0.0061157376 	-0.039240722 	1.9143402
0.0024120603 	0.0026040824 	-0.037000501 	1.9809075
0.0024321608 	0.0026040824 	-0.037000501 	1.9809075
0.0024522613 	-0.00021019392 	-0.024876484 	1.976344
0.0024723618 	-0.00021019392 	-0.024876484 	1.976344
0.0024924623 	0.019376442 	0.028566414 	1.8188958
0.0025125628 	0.019376442 	0.028566414 	1.8188958
0.0025326633 	0.0066999365 	0.018210736 	1.7904383
0.0025527638 	0.0066999365 	0.018210736 	1.7904383
0.0025728643 	0.013304013 	0.038537826 	1.8179088
0.0025929648 	0.013304013 	0.038537826 	1.8179088
0.0026130653 	0.0077612555 	0.068254097 	1.8331994
0.0026331658 	0.0077612555 	0.068254097 	1.8331994
0.0026532663 	0.0098159696 	0.056275525 	1.8574297
0.0026733668 	0.0098159696 	0.056275525 	1.8574297
0.0026934673 	0.012166986 	0.049797928 	1.8522865
0.0027135678 	0.012166986 	0.049797928 	1.8522865
0.0027336683 	0.014653809 	0.037073177 	1.8467765
0.0027537688 	0.014653809 	0.037073177 	1.8467765
0.0027738693 	0.019437432 	0.02370541 	1.8502749
0.0027939698 	0.019437432 	0.02370541 	1.8502749
0.0028140704 	0.003890549 	0.0074697639 	1.8712906
0.0028341709 	0.003890549 	0.0074697639 	1.8712906
0.0028542714 	0.0090693672 	0.021246479 	1.9234941
0.0028743719 	-0.00015469737 	0.01975299 	1.9355546
0.0028944724 	-0.00015469737 	0.01975299 	1.9355546
0.0029145729 	-0.00079428422 	-0.03344577 	1.9377696
0.0029346734 	-0.00079428422 	-0.03344577 	1.9377696
0.0029547739 	0.0025745125 	-0.070798921 	1.9810647
0.0029748744 	0.0025745125 	-0.070798921 	1.9810647
0.0029949749 	0.0074686146 	-0.080763325 	1.9790528
0.0030150754 	0.015806307 	-0.090861414 	1.9410662
0.0030351759 	0.015806307 	-0.090861414 	1.9410662
0.0030552764 	0.020455553 	-0.087797798 	1.8934271
0.0030753769 	0.020455553 	-0.087797798 	1.8934271
0.0030954774 	0.015507852 	-0.061645339 	1.8209254
0.0031155779 	0.0031079233 	-0.037861202 	1.7797472
0.0031356784 	0.0031079233 	-0.037861202 	1.7797472
0.0031557789 	-0.0067804823 	-0.02858176 	1.799527
0.0031758794 	-0.0067804823 	-0.02858176 	1.799527
0.0031959799 	-0.018307117 	-0.0088573224 	1.803611
0.0032160804 	-0.019161195 	-0.021100862 	1.8107502
0.0032361809 	-0.019161195 	-0.021100862 	1.8107502
0.0032562814 	-0.0085040757 	-0.070428376 	1.8393596
0.0032763819 	0.012302177 	-0.11578406 	1.8650876
0.0032964824 	0.012302177 	-0.11578406 	1.8650876
0.0033165829 	0.03136135 	-0.11713548 	1.8958056
0.0033366834 	0.046086112 	-0.10546574 	1.9026435
0.0033567839 	0.046086112 	-0.10546574 	1.9026435
0.0033768844 	0.054898465 	-0.071084839 	1.8590418
0.0033969849 	0.06571824 	-0.054984845 	1.8218529
0.0034170854 	0.06571824 	-0.054984845 	1.8218529
0.0034371859 	0.08248546 	-0.063162358 	1.8052647
0.0034572864 	0.097764112 	-0.054803114 	1.8344374
0.0034773869 	0.097669668 	-0.027677762 	1.8200573
0.0034974874 	0.097669668 	-0.027677762 	1.8200573
0.0035175879 	0.10602698 	-0.034139205 	1.7637344
0.0035376884 	0.098804735 	-0.068589079 	1.7170232
0.0035577889 	0.092364797 	-0.12223382 	1.6621603
0.0035778894 	0.092364797 	-0.12223382 	1.6621603
0.0035979899 	0.075212344 	-0.12511905 	1.6085951
0.0036180905 	0.048257143 	-0.064811604 	1.607559
0.003638191 	0.024577773 	-0.02262193 	1.6344906
0.0036582915 	0.024577773 	-0.02262193 	1.6344906
0.003678392 	0.0020426293 	-0.037719062 	1.614484
0.0036984925 	-0.0095648147 	-0.036142531 	1.6799488
0.003718593 	-0.0042814259 	-0.06559754 	1.8084405
0.0037386935 	0.0085352165 	-0.034975269 	1.8719719
0.003758794 	0.03205314 	0.034903473 	1.8309907
0.0037788945 	0.03205314 	0.034903473 	1.8309907
0.003798995 	0.056391677 	0.075683287 	1.7810179
0.0038190955 	0.06639877 	0.090740739 	1.8235838
0.003839196 	0.070725242 	0.070436513 	1.8103629
0.0038592965 	0.1028916 	-0.015026317 	1.7325621
0.003879397 	0.084384444 	-0.12107424 	1.6567512
0.0038994975 	0.09261719 	-0.090473114 	1.5044891
0.003919598 	0.062261878 	0.054259634 	1.5406307
0.0039396985 	0.079611068 	0.1323923 	1.5912787
0.003959799 	0.03413836 	-0.073731986 	1.4238368
0.0039798995 	0.0029233421 	-0.092440329 	0.45495253
0.004 	0.0029233421 	-0.092440329 	0.45495253
