0 	-0.0068203157 	0.026443525 	2.1066456
2.0100503e-05 	-0.0068203157 	0.026443525 	2.1066456
4.0201005e-05 	-0.0068203157 	0.026443525 	2.1066456
6.0301508e-05 	0.010515978 	0.043051676 	2.0780048
8.040201e-05 	0.010515978 	0.043051676 	2.0780048
0.00010050251 	0.010515978 	0.043051676 	2.0780048
0.00012060302 	0.019958142 	0.062637468 	2.0540251
0.00014070352 	0.019958142 	0.062637468 	2.0540251
0.00016080402 	0.019958142 	0.062637468 	2.0540251
0.00018090452 	0.027493691 	0.071747282 	2.0344509
0.00020100503 	0.027493691 	0.071747282 	2.0344509
0.00022110553 	0.027493691 	0.071747282 	2.0344509
0.00024120603 	0.028664606 	0.078737582 	2.0103383
0.00026130653 	0.028664606 	0.078737582 	2.0103383
0.00028140704 	0.039398464 	0.070805053 	2.0122238
0.00030150754 	0.039398464 	0.070805053 	2.0122238
0.00032160804 	0.039398464 	0.070805053 	2.0122238
0.00034170854 	0.046552241 	0.062649642 	2.0319668
0.00036180905 	0.046552241 	0.062649642 	2.0319668
0.00038190955 	0.046552241 	0.062649642 	2.0319668
0.00040201005 	0.039664867 	0.06100845 	2.028305
0.00042211055 	0.039664867 	0.06100845 	2.028305
0.00044221106 	0.039664867 	0.06100845 	2.028305
0.00046231156 	0.043603894 	0.044172517 	2.0139611
0.00048241206 	0.043603894 	0.044172517 	2.0139611
0.00050251256 	0.044347332 	0.01873345 	2.0305461
0.00052261307 	0.044347332 	0.01873345 	2.0305461
0.00054271357 	0.044347332 	0.01873345 	2.0305461
0.00056281407 	0.038396508 	0.011138216 	2.0383983
0.00058291457 	0.038396508 	0.011138216 	2.0383983
0.00060301508 	0.038396508 	0.011138216 	2.0383983
0.00062311558 	0.03184904 	0.010339208 	2.0584572
0.00064321608 	0.03184904 	0.010339208 	2.0584572
0.00066331658 	0.03184904 	0.010339208 	2.0584572
0.00068341709 	0.021806174 	0.02112903 	2.079107
0.00070351759 	0.021806174 	0.02112903 	2.079107
0.00072361809 	0.0038576185 	0.0274809 	2.0790281
0.00074371859 	0.0038576185 	0.0274809 	2.0790281
0.0007638191 	0.0038576185 	0.0274809 	2.0790281
0.0007839196 	-0.011618971 	0.020493281 	2.07266
0.0008040201 	-0.011618971 	0.020493281 	2.07266
0.0008241206 	-0.011618971 	0.020493281 	2.07266
0.00084422111 	-0.024096753 	0.015263287 	2.0525536
0.00086432161 	-0.024096753 	0.015263287 	2.0525536
0.00088442211 	-0.024096753 	0.015263287 	2.0525536
0.00090452261 	-0.027956026 	0.024834224 	2.0279385
0.00092462312 	-0.027956026 	0.024834224 	2.0279385
0.00094472362 	-0.026446018 	0.044287115 	2.0188687
0.00096482412 	-0.026446018 	0.044287115 	2.0188687
0.00098492462 	-0.026446018 	0.044287115 	2.0188687
0.0010050251 	-0.023552255 	0.050371072 	2.0289247
0.0010251256 	-0.023552255 	0.050371072 	2.0289247
0.0010452261 	-0.023552255 	0.050371072 	2.0289247
0.0010653266 	-0.014768509 	0.049515753 	2.0237124
0.0010854271 	-0.014768509 	0.049515753 	2.0237124
0.0011055276 	-0.0301984 	0.02769102 	2.0179788
0.0011256281 	-0.02316621 	0.03986253 	2.0451554
0.0011457286 	-0.010815284 	0.049806214 	2.0291898
0.0011658291 	-0.010815284 	0.049806214 	2.0291898
0.0011859296 	-0.009372324 	0.049445321 	1.9997335
0.0012060302 	-0.009372324 	0.049445321 	1.9997335
0.0012261307 	-0.009372324 	0.049445321 	1.9997335
0.0012462312 	-0.014806686 	0.049582678 	2.0088401
0.0012663317 	-0.014806686 	0.049582678 	2.0088401
0.0012864322 	-0.014806686 	0.049582678 	2.0088401
0.0013065327 	-0.019425214 	0.065373569 	2.0115081
0.0013266332 	-0.019425214 	0.065373569 	2.0115081
0.0013467337 	-0.019425214 	0.065373569 	2.0115081
0.0013668342 	-0.016394083 	0.072834227 	2.0070411
0.0013869347 	-0.016394083 	0.072834227 	2.0070411
0.0014070352 	-0.016394083 	0.072834227 	2.0070411
0.0014271357 	0.011710931 	0.066657154 	2.052077
0.0014472362 	0.011710931 	0.066657154 	2.052077
0.0014673367 	0.011710931 	0.066657154 	2.052077
0.0014874372 	0.012701461 	0.059026062 	2.0517824
0.0015075377 	0.012701461 	0.059026062 	2.0517824
0.0015276382 	0.038777932 	0.053284023 	2.0728434
0.0015477387 	0.038777932 	0.053284023 	2.0728434
0.0015678392 	0.038777932 	0.053284023 	2.0728434
0.0015879397 	0.027057977 	0.053323189 	2.079683
0.0016080402 	0.027057977 	0.053323189 	2.079683
0.0016281407 	0.027057977 	0.053323189 	2.079683
0.0016482412 	0.04302535 	0.034547535 	2.07272
0.0016683417 	0.04302535 	0.034547535 	2.07272
0.0016884422 	0.029939954 	0.038365218 	2.0775667
0.0017085427 	0.029939954 	0.038365218 	2.0775667
0.0017286432 	0.029939954 	0.038365218 	2.0775667
0.0017487437 	0.01873795 	0.015406823 	2.1100642
0.0017688442 	0.01873795 	0.015406823 	2.1100642
0.0017889447 	0.01873795 	0.015406823 	2.1100642
0.0018090452 	0.020433964 	-0.0073264211 	2.077107
0.0018291457 	0.020433964 	-0.0073264211 	2.077107
0.0018492462 	-0.001850488 	0.018078178 	2.0604667
0.0018693467 	-0.001850488 	0.018078178 	2.0604667
0.0018894472 	-0.001850488 	0.018078178 	2.0604667
0.0019095477 	0.021243045 	0.017910999 	1.959511
0.0019296482 	0.021243045 	0.017910999 	1.959511
0.0019497487 	0.021851447 	0.028334929 	1.9479945
0.0019698492 	0.021851447 	0.028334929 	1.9479945
0.0019899497 	0.0089894041 	0.06573576 	2.008454
0.0020100503 	0.0089894041 	0.06573576 	2.008454
0.0020301508 	0.0089894041 	0.06573576 	2.008454
0.0020502513 	-0.0015393377 	0.090237216 	2.0068854
0.0020703518 	-0.0015393377 	0.090237216 	2.0068854
0.0020904523 	-0.0055366642 	0.10246572 	1.970421
0.0021105528 	-0.0055366642 	0.10246572 	1.970421
0.0021306533 	-0.0055366642 	0.10246572 	1.970421
0.0021507538 	-0.010335239 	0.078271475 	1.9145293
0.0021708543 	-0.010335239 	0.078271475 	1.9145293
0.0021909548 	-0.016081706 	0.063041685 	1.9152912
0.0022110553 	-0.016081706 	0.063041685 	1.9152912
0.0022311558 	-0.0094101102 	0.038255992 	1.9303212
0.0022512563 	-0.0094101102 	0.038255992 	1.9303212
0.0022713568 	-0.01277737 	0.0024454536 	1.9458006
0.0022914573 	-0.01277737 	0.0024454536 	1.9458006
0.0023115578 	-0.01277737 	0.0024454536 	1.9458006
0.0023316583 	-0.02602057 	-0.014203221 	1.9393819
0.0023517588 	-0.02602057 	-0.014203221 	1.9393819
0.0023718593 	-0.047906387 	-0.0068630435 	1.9091429
0.0023919598 	-0.047906387 	-0.0068630435 	1.9091429
0.0024120603 	-0.057172448 	0.014427184 	1.8652106
0.0024321608 	-0.057172448 	0.014427184 	1.8652106
0.0024522613 	-0.053342067 	0.041066554 	1.8502606
0.0024723618 	-0.053342067 	0.041066554 	1.8502606
0.0024924623 	-0.047156415 	0.054239602 	1.8483035
0.0025125628 	-0.047156415 	0.054239602 	1.8483035
0.0025326633 	-0.035107039 	0.058633335 	1.8170395
0.0025527638 	-0.035107039 	0.058633335 	1.8170395
0.0025728643 	-0.046393442 	0.083406047 	1.7997483
0.0025929648 	-0.046393442 	0.083406047 	1.7997483
0.0026130653 	-0.056933036 	0.06970948 	1.795828
0.0026331658 	-0.056933036 	0.06970948 	1.795828
0.0026532663 	-0.060709393 	0.0085192221 	1.8265696
0.0026733668 	-0.060709393 	0.0085192221 	1.8265696
0.0026934673 	-0.062942655 	-0.018549549 	1.8471731
0.0027135678 	-0.062942655 	-0.018549549 	1.8471731
0.0027336683 	-0.065551997 	-0.029743929 	1.8608584
0.0027537688 	-0.065551997 	-0.029743929 	1.8608584
0.0027738693 	-0.065136594 	-0.035739192 	1.8777431
0.0027939698 	-0.065136594 	-0.035739192 	1.8777431
0.0028140704 	-0.054249609 	-0.046322648 	1.8703677
0.0028341709 	-0.054249609 	-0.046322648 	1.8703677
0.0028542714 	-0.042867418 	-0.054847825 	1.84047
0.0028743719 	-0.03255113 	-0.057280855 	1.8117517
0.0028944724 	-0.03255113 	-0.057280855 	1.8117517
0.0029145729 	-0.023468482 	-0.057561701 	1.7960158
0.0029346734 	-0.023468482 	-0.057561701 	1.7960158
0.0029547739 	-0.013133368 	-0.037948836 	1.7686115
0.0029748744 	-0.013133368 	-0.037948836 	1.7686115
0.0029949749 	-0.0053242979 	-0.0091774552 	1.7686993
0.0030150754 	3.6594491e-05 	0.015588944 	1.7730006
0.0030351759 	3.6594491e-05 	0.015588944 	1.7730006
0.0030552764 	0.013622879 	0.034877406 	1.7762834
0.0030753769 	0.013622879 	0.034877406 	1.7762834
0.0030954774 	0.020281033 	0.036941967 	1.7665291
0.0031155779 	0.027749557 	0.051842782 	1.7535921
0.0031356784 	0.027749557 	0.051842782 	1.7535921
0.0031557789 	0.02643485 	0.056233518 	1.7684092
0.0031758794 	0.02643485 	0.056233518 	1.7684092
0.0031959799 	0.044557517 	0.051880643 	1.7769801
0.0032160804 	0.050549418 	0.050244709 	1.7656083
0.0032361809 	0.050549418 	0.050244709 	1.7656083
0.0032562814 	0.063961888 	0.0087911638 	1.7376656
0.0032763819 	0.06044172 	0.056642279 	1.8025999
0.0032964824 	0.06044172 	0.056642279 	1.8025999
0.0033165829 	0.051582255 	0.08058368 	1.8821169
0.0033366834 	0.078144798 	0.055118573 	1.8663951
0.0033567839 	0.078144798 	0.055118573 	1.8663951
0.0033768844 	0.081868989 	0.060077505 	1.8490009
0.0033969849 	0.063456244 	0.084762989 	1.8737384
0.0034170854 	0.063456244 	0.084762989 	1.8737384
0.0034371859 	0.056930177 	0.07252471 	1.8650331
0.0034572864 	0.058291206 	0.052672853 	1.8656704
0.0034773869 	0.060465532 	0.055521603 	1.8681086
0.0034974874 	0.060465532 	0.055521603 	1.8681086
0.0035175879 	0.065495042 	0.069064261 	1.8853665
0.0035376884 	0.082299143 	0.06881883 	1.8983777
0.0035577889 	0.1003462 	0.050914056 	1.8936865
0.0035778894 	0.1003462 	0.050914056 	1.8936865
0.0035979899 	0.12071245 	0.056160205 	1.936978
0.0036180905 	0.11806041 	0.074358666 	1.9821261
0.003638191 	0.13225226 	0.084701341 	1.9439871
0.0036582915 	0.13225226 	0.084701341 	1.9439871
0.003678392 	0.14098565 	0.12753509 	1.9126383
0.0036984925 	0.12748369 	0.14075715 	1.857853
0.003718593 	0.1310789 	0.054337519 	1.7305612
0.0037386935 	0.11648688 	-0.025410384 	1.6926208
0.003758794 	0.09616506 	-0.050198262 	1.7760096
0.0037788945 	0.09616506 	-0.050198262 	1.7760096
0.003798995 	0.082299273 	-0.048498065 	1.7556457
0.0038190955 	0.043306756 	-0.00077207767 	1.6303905
0.003839196 	0.014389123 	0.086697027 	1.6158494
0.0038592965 	-0.0074621655 	0.090094763 	1.6629913
0.003879397 	-0.023765122 	0.11454599 	1.6724384
0.0038994975 	-0.035741652 	0.003658694 	1.5124497
0.003919598 	-0.017308144 	-0.18108691 	1.1014804
0.0039396985 	0.033693423 	-0.31874326 	1.0344296
0.003959799 	0.0095002389 	-0.036018782 	1.3172856
0.0039798995 	0.0032491729 	0.047666933 	0.54275503
0.004 	0.0032491729 	0.047666933 	0.54275503
