0 	-0.048421359 	0.0029504023 	2.0277881
2.0100503e-05 	0.011143696 	0.049698468 	2.0147392
4.0201005e-05 	0.011143696 	0.049698468 	2.0147392
6.0301508e-05 	0.030791084 	0.033914698 	2.0317773
8.040201e-05 	0.030791084 	0.033914698 	2.0317773
0.00010050251 	0.030791084 	0.033914698 	2.0317773
0.00012060302 	0.050349217 	0.017281933 	2.0348146
0.00014070352 	0.050349217 	0.017281933 	2.0348146
0.00016080402 	0.050349217 	0.017281933 	2.0348146
0.00018090452 	0.051881031 	0.0093345716 	2.0459043
0.00020100503 	0.051881031 	0.0093345716 	2.0459043
0.00022110553 	0.051881031 	0.0093345716 	2.0459043
0.00024120603 	0.053447992 	0.0040098657 	2.0584791
0.00026130653 	0.053447992 	0.0040098657 	2.0584791
0.00028140704 	0.059775454 	-0.0052863757 	2.0479603
0.00030150754 	0.059775454 	-0.0052863757 	2.0479603
0.00032160804 	0.059775454 	-0.0052863757 	2.0479603
0.00034170854 	0.05861754 	-0.0038303598 	2.0563981
0.00036180905 	0.05861754 	-0.0038303598 	2.0563981
0.00038190955 	0.05861754 	-0.0038303598 	2.0563981
0.00040201005 	0.044570851 	0.0041924394 	2.0540188
0.00042211055 	0.044570851 	0.0041924394 	2.0540188
0.00044221106 	0.044570851 	0.0041924394 	2.0540188
0.00046231156 	0.039219161 	0.016529314 	2.0256958
0.00048241206 	0.039219161 	0.016529314 	2.0256958
0.00050251256 	0.046363473 	0.021133132 	2.0314136
0.00052261307 	0.046363473 	0.021133132 	2.0314136
0.00054271357 	0.046363473 	0.021133132 	2.0314136
0.00056281407 	0.056883842 	0.0081757064 	2.0327134
0.00058291457 	0.056883842 	0.0081757064 	2.0327134
0.00060301508 	0.056883842 	0.0081757064 	2.0327134
0.00062311558 	0.069712718 	-0.0039057188 	2.033969
0.00064321608 	0.069712718 	-0.0039057188 	2.033969
0.00066331658 	0.069712718 	-0.0039057188 	2.033969
0.00068341709 	0.067038664 	-0.012717271 	2.0477182
0.00070351759 	0.067038664 	-0.012717271 	2.0477182
0.00072361809 	0.047566805 	-0.011079419 	2.0863932
0.00074371859 	0.047566805 	-0.011079419 	2.0863932
0.0007638191 	0.047566805 	-0.011079419 	2.0863932
0.0007839196 	0.046140482 	-0.011095716 	2.0885954
0.0008040201 	0.046140482 	-0.011095716 	2.0885954
0.0008241206 	0.046140482 	-0.011095716 	2.0885954
0.00084422111 	0.044058097 	-0.011935789 	2.0635346
0.00086432161 	0.044058097 	-0.011935789 	2.0635346
0.00088442211 	0.044058097 	-0.011935789 	2.0635346
0.00090452261 	0.042681467 	-0.015151976 	2.0425681
0.00092462312 	0.042681467 	-0.015151976 	2.0425681
0.00094472362 	0.039473846 	-0.011983005 	2.0059144
0.00096482412 	0.039473846 	-0.011983005 	2.0059144
0.00098492462 	0.039473846 	-0.011983005 	2.0059144
0.0010050251 	0.030528719 	-0.021245387 	2.0228839
0.0010251256 	0.030528719 	-0.021245387 	2.0228839
0.0010452261 	0.031666611 	-0.010318177 	1.9969141
0.0010653266 	0.02744156 	-0.011350545 	1.9920499
0.0010854271 	0.02744156 	-0.011350545 	1.9920499
0.0011055276 	0.02744156 	-0.011350545 	1.9920499
0.0011256281 	0.021950602 	-0.013035214 	1.9780869
0.0011457286 	0.021950602 	-0.013035214 	1.9780869
0.0011658291 	0.024166831 	-0.025825479 	1.9840637
0.0011859296 	0.0031148008 	-0.014179833 	1.9937245
0.0012060302 	0.004327615 	0.0028430097 	1.9803671
0.0012261307 	0.004327615 	0.0028430097 	1.9803671
0.0012462312 	0.0055065432 	-0.009288788 	1.9558485
0.0012663317 	0.0055065432 	-0.009288788 	1.9558485
0.0012864322 	0.0055065432 	-0.009288788 	1.9558485
0.0013065327 	0.012536441 	-0.043725241 	1.9981466
0.0013266332 	0.012536441 	-0.043725241 	1.9981466
0.0013467337 	0.012536441 	-0.043725241 	1.9981466
0.0013668342 	-0.0012219964 	-0.046194113 	1.9441945
0.0013869347 	-0.0012219964 	-0.046194113 	1.9441945
0.0014070352 	-0.0012219964 	-0.046194113 	1.9441945
0.0014271357 	-0.025823779 	-0.066772823 	1.9335687
0.0014472362 	-0.025823779 	-0.066772823 	1.9335687
0.0014673367 	-0.025823779 	-0.066772823 	1.9335687
0.0014874372 	-0.042874026 	-0.074592598 	1.9645811
0.0015075377 	-0.042874026 	-0.074592598 	1.9645811
0.0015276382 	-0.022523394 	-0.090534945 	2.023178
0.0015477387 	-0.047773905 	-0.087084558 	2.0151363
0.0015678392 	-0.047773905 	-0.087084558 	2.0151363
0.0015879397 	-0.024182908 	-0.092764969 	1.9930629
0.0016080402 	-0.024182908 	-0.092764969 	1.9930629
0.0016281407 	-0.023843388 	-0.10041198 	2.0511425
0.0016482412 	-0.016674387 	-0.081939847 	1.9929494
0.0016683417 	-0.016674387 	-0.081939847 	1.9929494
0.0016884422 	-0.019856174 	-0.066410258 	1.9568298
0.0017085427 	-0.019856174 	-0.066410258 	1.9568298
0.0017286432 	-0.019856174 	-0.066410258 	1.9568298
0.0017487437 	-0.0059201137 	-0.071491611 	1.8991215
0.0017688442 	-0.0059201137 	-0.071491611 	1.8991215
0.0017889447 	-0.0059201137 	-0.071491611 	1.8991215
0.0018090452 	0.025093257 	-0.09192952 	1.932912
0.0018291457 	0.025093257 	-0.09192952 	1.932912
0.0018492462 	0.045570237 	-0.080110251 	2.0048034
0.0018693467 	0.045570237 	-0.080110251 	2.0048034
0.0018894472 	0.045570237 	-0.080110251 	2.0048034
0.0019095477 	0.063111007 	-0.054529041 	1.9624232
0.0019296482 	0.063111007 	-0.054529041 	1.9624232
0.0019497487 	0.063630618 	-0.026411152 	1.9366592
0.0019698492 	0.063630618 	-0.026411152 	1.9366592
0.0019899497 	0.056676186 	-0.013928987 	1.9626831
0.0020100503 	0.056676186 	-0.013928987 	1.9626831
0.0020301508 	0.056676186 	-0.013928987 	1.9626831
0.0020502513 	0.06194283 	0.017360334 	1.9368964
0.0020703518 	0.06194283 	0.017360334 	1.9368964
0.0020904523 	0.064073216 	0.020004015 	1.9288546
0.0021105528 	0.064073216 	0.020004015 	1.9288546
0.0021306533 	0.064073216 	0.020004015 	1.9288546
0.0021507538 	0.067706227 	0.00094881532 	1.9597621
0.0021708543 	0.067706227 	0.00094881532 	1.9597621
0.0021909548 	0.074367008 	-0.0072469901 	1.9357594
0.0022110553 	0.074367008 	-0.0072469901 	1.9357594
0.0022311558 	0.078937053 	-0.016627133 	1.9224065
0.0022512563 	0.078937053 	-0.016627133 	1.9224065
0.0022713568 	0.070192046 	-0.03241981 	1.9156265
0.0022914573 	0.070192046 	-0.03241981 	1.9156265
0.0023115578 	0.070192046 	-0.03241981 	1.9156265
0.0023316583 	0.066539105 	-0.035304009 	1.8985979
0.0023517588 	0.066539105 	-0.035304009 	1.8985979
0.0023718593 	0.057145033 	-0.02887512 	1.8996803
0.0023919598 	0.057145033 	-0.02887512 	1.8996803
0.0024120603 	0.039268214 	0.0087665756 	1.899627
0.0024321608 	0.039268214 	0.0087665756 	1.899627
0.0024522613 	0.021650329 	0.037696605 	1.9013246
0.0024723618 	0.021650329 	0.037696605 	1.9013246
0.0024924623 	-0.014249574 	0.0028977675 	1.8591585
0.0025125628 	-0.014249574 	0.0028977675 	1.8591585
0.0025326633 	-0.020335681 	-0.052648996 	1.8344043
0.0025527638 	-0.020335681 	-0.052648996 	1.8344043
0.0025728643 	-0.035361894 	-0.062453974 	1.8291545
0.0025929648 	-0.035361894 	-0.062453974 	1.8291545
0.0026130653 	-0.047408831 	-0.026425539 	1.7985516
0.0026331658 	-0.047408831 	-0.026425539 	1.7985516
0.0026532663 	-0.044661358 	0.010262178 	1.7639067
0.0026733668 	-0.044661358 	0.010262178 	1.7639067
0.0026934673 	-0.044255243 	0.017007511 	1.7436406
0.0027135678 	-0.044255243 	0.017007511 	1.7436406
0.0027336683 	-0.039894559 	0.0016312395 	1.7574337
0.0027537688 	-0.039894559 	0.0016312395 	1.7574337
0.0027738693 	-0.032464318 	-0.020046229 	1.7963824
0.0027939698 	-0.032464318 	-0.020046229 	1.7963824
0.0028140704 	-0.022831817 	-0.038380329 	1.7721757
0.0028341709 	-0.022831817 	-0.038380329 	1.7721757
0.0028542714 	-0.018547089 	-0.02978089 	1.79358
0.0028743719 	-0.0190793 	-0.028261652 	1.8363006
0.0028944724 	-0.0190793 	-0.028261652 	1.8363006
0.0029145729 	-0.027004179 	-0.019144785 	1.8474035
0.0029346734 	-0.027004179 	-0.019144785 	1.8474035
0.0029547739 	-0.033464178 	-0.01542427 	1.8242729
0.0029748744 	-0.033464178 	-0.01542427 	1.8242729
0.0029949749 	-0.024694012 	-0.0037822928 	1.8159327
0.0030150754 	-0.020043722 	-0.013447937 	1.8194048
0.0030351759 	-0.020043722 	-0.013447937 	1.8194048
0.0030552764 	-0.0065799835 	-0.018802156 	1.8260549
0.0030753769 	-0.0065799835 	-0.018802156 	1.8260549
0.0030954774 	-0.0011796489 	-0.0072551607 	1.8401178
0.0031155779 	0.0019899964 	-0.0048998794 	1.8169785
0.0031356784 	0.0019899964 	-0.0048998794 	1.8169785
0.0031557789 	0.0091197022 	0.0079581473 	1.8011458
0.0031758794 	0.0091197022 	0.0079581473 	1.8011458
0.0031959799 	0.0080445109 	0.003309358 	1.7825072
0.0032160804 	0.009550222 	0.00096406722 	1.7512868
0.0032361809 	0.009550222 	0.00096406722 	1.7512868
0.0032562814 	0.007788699 	-0.028043761 	1.7547921
0.0032763819 	0.0088956262 	-0.044310969 	1.7620765
0.0032964824 	0.0088956262 	-0.044310969 	1.7620765
0.0033165829 	0.013819801 	-0.031974187 	1.7520327
0.0033366834 	-0.0068579088 	-0.028375535 	1.7883704
0.0033567839 	-0.0068579088 	-0.028375535 	1.7883704
0.0033768844 	-0.010190285 	-0.044139257 	1.7703261
0.0033969849 	0.003861526 	-0.020466462 	1.7330812
0.0034170854 	0.003861526 	-0.020466462 	1.7330812
0.0034371859 	0.0068748451 	-0.0067842506 	1.7375566
0.0034572864 	0.004914837 	-0.064552062 	1.8236544
0.0034773869 	0.0032383401 	-0.05589657 	1.8105734
0.0034974874 	0.0032383401 	-0.05589657 	1.8105734
0.0035175879 	-0.022561778 	-0.024508758 	1.7483887
0.0035376884 	-0.031334137 	0.00074684588 	1.7558683
0.0035577889 	-0.024105711 	0.014601689 	1.6965517
0.0035778894 	-0.024105711 	0.014601689 	1.6965517
0.0035979899 	-0.0087663041 	-0.013628771 	1.6755864
0.0036180905 	0.0033897061 	-0.044520243 	1.68629
0.003638191 	0.0093212382 	-0.052117588 	1.7533257
0.0036582915 	0.0093212382 	-0.052117588 	1.7533257
0.003678392 	0.0010402486 	-0.071494678 	1.8141844
0.0036984925 	0.00024734991 	-0.027679572 	1.8202398
0.003718593 	0.015958845 	0.025585073 	1.7663629
0.0037386935 	0.0079953539 	0.0034778407 	1.6696213
0.003758794 	0.0096149853 	-0.052844806 	1.6019344
0.0037788945 	0.0096149853 	-0.052844806 	1.6019344
0.003798995 	0.0024031174 	-0.053275518 	1.5110951
0.0038190955 	-0.00045955 	-0.034398649 	1.5200614
0.003839196 	-0.024878868 	0.097130832 	1.6380645
0.0038592965 	-0.041996675 	0.23586725 	1.7819245
0.003879397 	-0.039039945 	0.14941697 	1.7605967
0.0038994975 	-0.025660309 	0.0034825612 	1.5301979
0.003919598 	0.010309392 	-0.064575856 	1.2573445
0.0039396985 	-0.034200013 	0.010513126 	1.2846778
0.003959799 	0.011967488 	0.032862018 	1.0790352
0.0039798995 	-0.0059725622 	-0.17370071 	0.66000113
0.004 	-0.0059725622 	-0.17370071 	0.66000113
