0 	0.042892192 	-0.0019233333 	2.0514566
2.0100503e-05 	0.042892192 	-0.0019233333 	2.0514566
4.0201005e-05 	0.042892192 	-0.0019233333 	2.0514566
6.0301508e-05 	0.048668956 	0.0063648921 	2.0597554
8.040201e-05 	0.048668956 	0.0063648921 	2.0597554
0.00010050251 	0.048668956 	0.0063648921 	2.0597554
0.00012060302 	0.056808083 	0.011164155 	2.0717279
0.00014070352 	0.056808083 	0.011164155 	2.0717279
0.00016080402 	0.056808083 	0.011164155 	2.0717279
0.00018090452 	0.062749558 	0.011653523 	2.0781718
0.00020100503 	0.062749558 	0.011653523 	2.0781718
0.00022110553 	0.062749558 	0.011653523 	2.0781718
0.00024120603 	0.064868469 	0.0055844137 	2.0768974
0.00026130653 	0.064868469 	0.0055844137 	2.0768974
0.00028140704 	0.070699394 	0.013018067 	2.0663982
0.00030150754 	0.070699394 	0.013018067 	2.0663982
0.00032160804 	0.070699394 	0.013018067 	2.0663982
0.00034170854 	0.064483001 	0.026166532 	2.0505086
0.00036180905 	0.064483001 	0.026166532 	2.0505086
0.00038190955 	0.064483001 	0.026166532 	2.0505086
0.00040201005 	0.061219247 	0.02561435 	2.0264557
0.00042211055 	0.061219247 	0.02561435 	2.0264557
0.00044221106 	0.061219247 	0.02561435 	2.0264557
0.00046231156 	0.043466462 	0.03925637 	2.0155355
0.00048241206 	0.043466462 	0.03925637 	2.0155355
0.00050251256 	0.03637883 	0.062596398 	2.0319934
0.00052261307 	0.03637883 	0.062596398 	2.0319934
0.00054271357 	0.03637883 	0.062596398 	2.0319934
0.00056281407 	0.039565922 	0.062856264 	2.0362074
0.00058291457 	0.039565922 	0.062856264 	2.0362074
0.00060301508 	0.039565922 	0.062856264 	2.0362074
0.00062311558 	0.056037969 	0.054919618 	2.0309925
0.00064321608 	0.056037969 	0.054919618 	2.0309925
0.00066331658 	0.056037969 	0.054919618 	2.0309925
0.00068341709 	0.048741641 	0.060037947 	2.0614473
0.00070351759 	0.048741641 	0.060037947 	2.0614473
0.00072361809 	0.051319369 	0.052249239 	2.074932
0.00074371859 	0.051319369 	0.052249239 	2.074932
0.0007638191 	0.051319369 	0.052249239 	2.074932
0.0007839196 	0.0505144 	0.053737233 	2.0804671
0.0008040201 	0.0505144 	0.053737233 	2.0804671
0.0008241206 	0.0505144 	0.053737233 	2.0804671
0.00084422111 	0.070582355 	0.04755148 	2.0785467
0.00086432161 	0.070582355 	0.04755148 	2.0785467
0.00088442211 	0.070582355 	0.04755148 	2.0785467
0.00090452261 	0.065992099 	0.051295439 	2.0569344
0.00092462312 	0.065992099 	0.051295439 	2.0569344
0.00094472362 	0.072354411 	0.044546762 	2.0707353
0.00096482412 	0.072354411 	0.044546762 	2.0707353
0.00098492462 	0.072354411 	0.044546762 	2.0707353
0.0010050251 	0.077886139 	0.038588046 	2.115552
0.0010251256 	0.077886139 	0.038588046 	2.115552
0.0010452261 	0.077886139 	0.038588046 	2.115552
0.0010653266 	0.054335041 	0.028186579 	2.1118561
0.0010854271 	0.054335041 	0.028186579 	2.1118561
0.0011055276 	0.054335041 	0.028186579 	2.1118561
0.0011256281 	0.076428032 	0.032833246 	2.0798827
0.0011457286 	0.076428032 	0.032833246 	2.0798827
0.0011658291 	0.076428032 	0.032833246 	2.0798827
0.0011859296 	0.06095187 	0.02506719 	2.0529297
0.0012060302 	0.06095187 	0.02506719 	2.0529297
0.0012261307 	0.06095187 	0.02506719 	2.0529297
0.0012462312 	0.05921156 	0.018263969 	2.0543812
0.0012663317 	0.05921156 	0.018263969 	2.0543812
0.0012864322 	0.05921156 	0.018263969 	2.0543812
0.0013065327 	0.057146475 	-0.0058215067 	2.0522758
0.0013266332 	0.057146475 	-0.0058215067 	2.0522758
0.0013467337 	0.057146475 	-0.0058215067 	2.0522758
0.0013668342 	0.052720933 	-0.004743341 	2.0255023
0.0013869347 	0.052720933 	-0.004743341 	2.0255023
0.0014070352 	0.052720933 	-0.004743341 	2.0255023
0.0014271357 	0.040086562 	-0.0035533657 	1.9724408
0.0014472362 	0.040086562 	-0.0035533657 	1.9724408
0.0014673367 	0.040086562 	-0.0035533657 	1.9724408
0.0014874372 	0.01484224 	-0.029729062 	2.0059397
0.0015075377 	0.01484224 	-0.029729062 	2.0059397
0.0015276382 	0.03019769 	-0.059000473 	2.0615164
0.0015477387 	0.03019769 	-0.059000473 	2.0615164
0.0015678392 	0.03019769 	-0.059000473 	2.0615164
0.0015879397 	0.021859049 	-0.032891953 	2.027763
0.0016080402 	0.021859049 	-0.032891953 	2.027763
0.0016281407 	0.021859049 	-0.032891953 	2.027763
0.0016482412 	0.0024171858 	-0.07603029 	2.0242425
0.0016683417 	0.0024171858 	-0.07603029 	2.0242425
0.0016884422 	-0.023424861 	-0.076043193 	2.0485292
0.0017085427 	-0.023424861 	-0.076043193 	2.0485292
0.0017286432 	-0.023424861 	-0.076043193 	2.0485292
0.0017487437 	-0.016912418 	0.0089326413 	1.9935284
0.0017688442 	-0.016912418 	0.0089326413 	1.9935284
0.0017889447 	-0.016912418 	0.0089326413 	1.9935284
0.0018090452 	-0.016635882 	0.025057564 	2.020626
0.0018291457 	-0.016635882 	0.025057564 	2.020626
0.0018492462 	-0.0073946417 	0.008285385 	2.0394184
0.0018693467 	-0.0073946417 	0.008285385 	2.0394184
0.0018894472 	-0.0073946417 	0.008285385 	2.0394184
0.0019095477 	0.0090874265 	-0.0096564445 	2.0277557
0.0019296482 	0.0090874265 	-0.0096564445 	2.0277557
0.0019497487 	0.008164983 	-0.0049490722 	2.0227784
0.0019698492 	0.008164983 	-0.0049490722 	2.0227784
0.0019899497 	0.008164983 	-0.0049490722 	2.0227784
0.0020100503 	0.0066465625 	0.0018223615 	2.0103382
0.0020301508 	0.0066465625 	0.0018223615 	2.0103382
0.0020502513 	-0.0068985909 	-0.0026774678 	1.9852752
0.0020703518 	-0.0068985909 	-0.0026774678 	1.9852752
0.0020904523 	-0.013099214 	-0.010232636 	1.9172028
0.0021105528 	-0.013099214 	-0.010232636 	1.9172028
0.0021306533 	-0.013099214 	-0.010232636 	1.9172028
0.0021507538 	-0.029903282 	-0.023744864 	1.8616558
0.0021708543 	-0.029903282 	-0.023744864 	1.8616558
0.0021909548 	-0.052034647 	-0.010844028 	1.8641343
0.0022110553 	-0.052034647 	-0.010844028 	1.8641343
0.0022311558 	-0.060339428 	0.0052178781 	1.8755694
0.0022512563 	-0.060339428 	0.0052178781 	1.8755694
0.0022713568 	-0.054268593 	0.0091906284 	1.867325
0.0022914573 	-0.054268593 	0.0091906284 	1.867325
0.0023115578 	-0.054268593 	0.0091906284 	1.867325
0.0023316583 	-0.032036346 	0.010520816 	1.8450089
0.0023517588 	-0.032036346 	0.010520816 	1.8450089
0.0023718593 	-0.013327453 	0.045463771 	1.8166756
0.0023919598 	-0.013327453 	0.045463771 	1.8166756
0.0024120603 	0.00040035955 	0.087436016 	1.7895139
0.0024321608 	0.00040035955 	0.087436016 	1.7895139
0.0024522613 	0.01898917 	0.11813906 	1.7631693
0.0024723618 	0.01898917 	0.11813906 	1.7631693
0.0024924623 	0.013073569 	0.1135261 	1.753742
0.0025125628 	0.013073569 	0.1135261 	1.753742
0.0025326633 	0.024922593 	0.07403689 	1.770128
0.0025527638 	0.024922593 	0.07403689 	1.770128
0.0025728643 	0.02256804 	0.052419278 	1.7831691
0.0025929648 	0.02256804 	0.052419278 	1.7831691
0.0026130653 	0.0029145808 	0.056542582 	1.8031874
0.0026331658 	0.0029145808 	0.056542582 	1.8031874
0.0026532663 	0.0017095894 	0.051142829 	1.8480482
0.0026733668 	0.0017095894 	0.051142829 	1.8480482
0.0026934673 	0.014578509 	0.051415482 	1.8482604
0.0027135678 	0.014578509 	0.051415482 	1.8482604
0.0027336683 	0.023762962 	0.074348939 	1.8753736
0.0027537688 	0.023762962 	0.074348939 	1.8753736
0.0027738693 	0.03543083 	0.09965494 	1.8902867
0.0027939698 	0.03543083 	0.09965494 	1.8902867
0.0028140704 	0.045882358 	0.091321522 	1.890805
0.0028341709 	0.045882358 	0.091321522 	1.890805
0.0028542714 	0.046421979 	0.065549191 	1.9144436
0.0028743719 	0.045849556 	0.072441156 	1.9434786
0.0028944724 	0.045849556 	0.072441156 	1.9434786
0.0029145729 	0.040998152 	0.07712986 	1.9237031
0.0029346734 	0.040998152 	0.07712986 	1.9237031
0.0029547739 	0.037364469 	0.058160841 	1.9076639
0.0029748744 	0.037364469 	0.058160841 	1.9076639
0.0029949749 	0.051434883 	0.042246868 	1.886324
0.0030150754 	0.065952774 	0.060597842 	1.8458635
0.0030351759 	0.065952774 	0.060597842 	1.8458635
0.0030552764 	0.071502348 	0.068483987 	1.7957641
0.0030753769 	0.071502348 	0.068483987 	1.7957641
0.0030954774 	0.065569193 	0.069235244 	1.7748501
0.0031155779 	0.066033121 	0.061873472 	1.7841022
0.0031356784 	0.066033121 	0.061873472 	1.7841022
0.0031557789 	0.077331891 	0.035945055 	1.7942068
0.0031758794 	0.077331891 	0.035945055 	1.7942068
0.0031959799 	0.08707716 	0.014623528 	1.8290438
0.0032160804 	0.098146359 	0.010921019 	1.8330642
0.0032361809 	0.098146359 	0.010921019 	1.8330642
0.0032562814 	0.10298848 	0.010805963 	1.8275621
0.0032763819 	0.098631562 	-0.024342783 	1.8728883
0.0032964824 	0.098631562 	-0.024342783 	1.8728883
0.0033165829 	0.083263287 	-0.010660973 	1.8711126
0.0033366834 	0.092217868 	0.015143745 	1.8443529
0.0033567839 	0.092217868 	0.015143745 	1.8443529
0.0033768844 	0.097796188 	0.047908451 	1.8198207
0.0033969849 	0.11445886 	0.020307944 	1.8677211
0.0034170854 	0.11445886 	0.020307944 	1.8677211
0.0034371859 	0.11920759 	-0.01588559 	1.8688564
0.0034572864 	0.10739516 	-0.0022805528 	1.8595875
0.0034773869 	0.10192696 	-0.047297439 	1.9322975
0.0034974874 	0.10192696 	-0.047297439 	1.9322975
0.0035175879 	0.075180922 	-0.06173116 	1.9598419
0.0035376884 	0.072298334 	-0.040434673 	1.9422629
0.0035577889 	0.057885214 	0.008083572 	1.8558592
0.0035778894 	0.057885214 	0.008083572 	1.8558592
0.0035979899 	0.045576353 	-0.025456185 	1.7102284
0.0036180905 	0.017541318 	-0.039225414 	1.5925929
0.003638191 	-0.014072652 	-0.049294995 	1.5782868
0.0036582915 	-0.014072652 	-0.049294995 	1.5782868
0.003678392 	-0.036899259 	-0.068727063 	1.5473334
0.0036984925 	-0.054481262 	-0.032942721 	1.493596
0.003718593 	-0.049570176 	-0.064053316 	1.5035887
0.0037386935 	-0.032777959 	-0.048041119 	1.4865488
0.003758794 	-0.014737072 	0.034895037 	1.4253679
0.0037788945 	-0.014737072 	0.034895037 	1.4253679
0.003798995 	-0.015593449 	0.076828629 	1.4193845
0.0038190955 	-0.013416829 	0.041516972 	1.4800091
0.003839196 	-0.017090374 	-0.0054919515 	1.4569743
0.0038592965 	-0.015260983 	0.0086041126 	1.3451344
0.003879397 	-0.014160271 	0.10211911 	1.3319219
0.0038994975 	-0.011070752 	0.096072412 	1.3507034
0.003919598 	-0.015452876 	-0.094376312 	1.2473912
0.0039396985 	0.011844665 	-0.16553277 	1.2133377
0.003959799 	0.018653841 	0.11825524 	1.1969912
0.0039798995 	0.012266233 	0.0053263982 	0.65580719
0.004 	0.012266233 	0.0053263982 	0.65580719
