0 	0.029734502 	-0.065287861 	2.0722889
2.0100503e-05 	0.053266641 	0.026330971 	2.0595295
4.0201005e-05 	0.053266641 	0.026330971 	2.0595295
6.0301508e-05 	0.033423518 	0.038952177 	2.0451523
8.040201e-05 	0.033423518 	0.038952177 	2.0451523
0.00010050251 	0.033423518 	0.038952177 	2.0451523
0.00012060302 	0.021577874 	0.043400801 	2.027729
0.00014070352 	0.021577874 	0.043400801 	2.027729
0.00016080402 	0.021577874 	0.043400801 	2.027729
0.00018090452 	0.018129961 	0.043980781 	2.0434757
0.00020100503 	0.018129961 	0.043980781 	2.0434757
0.00022110553 	0.018129961 	0.043980781 	2.0434757
0.00024120603 	0.011450896 	0.040382427 	2.0441585
0.00026130653 	0.011450896 	0.040382427 	2.0441585
0.00028140704 	0.019349801 	0.040824775 	2.0397441
0.00030150754 	0.019349801 	0.040824775 	2.0397441
0.00032160804 	0.019349801 	0.040824775 	2.0397441
0.00034170854 	0.016592426 	0.044063966 	2.0302017
0.00036180905 	0.016592426 	0.044063966 	2.0302017
0.00038190955 	0.016592426 	0.044063966 	2.0302017
0.00040201005 	0.019348759 	0.040674304 	2.0285533
0.00042211055 	0.019348759 	0.040674304 	2.0285533
0.00044221106 	0.019348759 	0.040674304 	2.0285533
0.00046231156 	0.026514644 	0.044026278 	2.0293172
0.00048241206 	0.026514644 	0.044026278 	2.0293172
0.00050251256 	0.034866636 	0.0423025 	2.0102828
0.00052261307 	0.034866636 	0.0423025 	2.0102828
0.00054271357 	0.034866636 	0.0423025 	2.0102828
0.00056281407 	0.048110926 	0.03140805 	2.0112197
0.00058291457 	0.048110926 	0.03140805 	2.0112197
0.00060301508 	0.048110926 	0.03140805 	2.0112197
0.00062311558 	0.070051506 	0.035618056 	2.0339186
0.00064321608 	0.070051506 	0.035618056 	2.0339186
0.00066331658 	0.070051506 	0.035618056 	2.0339186
0.00068341709 	0.074471551 	0.032273765 	2.0238756
0.00070351759 	0.074471551 	0.032273765 	2.0238756
0.00072361809 	0.06937092 	0.021489387 	2.0282764
0.00074371859 	0.06937092 	0.021489387 	2.0282764
0.0007638191 	0.06937092 	0.021489387 	2.0282764
0.0007839196 	0.071442916 	0.029475777 	2.0434638
0.0008040201 	0.071442916 	0.029475777 	2.0434638
0.0008241206 	0.071442916 	0.029475777 	2.0434638
0.00084422111 	0.069713617 	0.026975578 	2.0549256
0.00086432161 	0.069713617 	0.026975578 	2.0549256
0.00088442211 	0.069713617 	0.026975578 	2.0549256
0.00090452261 	0.063893925 	0.020172842 	2.0573982
0.00092462312 	0.063893925 	0.020172842 	2.0573982
0.00094472362 	0.06830619 	0.0065501055 	2.0827528
0.00096482412 	0.06830619 	0.0065501055 	2.0827528
0.00098492462 	0.06830619 	0.0065501055 	2.0827528
0.0010050251 	0.067952313 	0.0044701751 	2.0632702
0.0010251256 	0.067952313 	0.0044701751 	2.0632702
0.0010452261 	0.067952313 	0.0044701751 	2.0632702
0.0010653266 	0.080045471 	0.030730926 	2.0831052
0.0010854271 	0.080045471 	0.030730926 	2.0831052
0.0011055276 	0.080045471 	0.030730926 	2.0831052
0.0011256281 	0.065188615 	0.062614026 	2.0432765
0.0011457286 	0.065188615 	0.062614026 	2.0432765
0.0011658291 	0.065188615 	0.062614026 	2.0432765
0.0011859296 	0.060649387 	0.036507075 	2.0460267
0.0012060302 	0.060649387 	0.036507075 	2.0460267
0.0012261307 	0.060649387 	0.036507075 	2.0460267
0.0012462312 	0.0480711 	-0.00033224954 	2.124754
0.0012663317 	0.0480711 	-0.00033224954 	2.124754
0.0012864322 	0.0480711 	-0.00033224954 	2.124754
0.0013065327 	0.051713407 	-0.012543021 	2.1176778
0.0013266332 	0.051713407 	-0.012543021 	2.1176778
0.0013467337 	0.051713407 	-0.012543021 	2.1176778
0.0013668342 	0.04734369 	-0.010873747 	2.0130633
0.0013869347 	0.04734369 	-0.010873747 	2.0130633
0.0014070352 	0.04734369 	-0.010873747 	2.0130633
0.0014271357 	0.063608517 	-0.010245072 	1.9761928
0.0014472362 	0.063608517 	-0.010245072 	1.9761928
0.0014673367 	0.063608517 	-0.010245072 	1.9761928
0.0014874372 	0.04648441 	-0.014143694 	1.9840545
0.0015075377 	0.04648441 	-0.014143694 	1.9840545
0.0015276382 	0.039550905 	-0.0076517794 	2.0179497
0.0015477387 	0.039550905 	-0.0076517794 	2.0179497
0.0015678392 	0.039550905 	-0.0076517794 	2.0179497
0.0015879397 	0.034262532 	-0.02187063 	2.0356977
0.0016080402 	0.034262532 	-0.02187063 	2.0356977
0.0016281407 	0.034262532 	-0.02187063 	2.0356977
0.0016482412 	0.035459345 	-0.011658437 	2.0421309
0.0016683417 	0.035459345 	-0.011658437 	2.0421309
0.0016884422 	0.046365839 	-0.021688391 	2.0517712
0.0017085427 	0.046365839 	-0.021688391 	2.0517712
0.0017286432 	0.046365839 	-0.021688391 	2.0517712
0.0017487437 	0.024230728 	-0.053265876 	2.0010969
0.0017688442 	0.024230728 	-0.053265876 	2.0010969
0.0017889447 	0.024230728 	-0.053265876 	2.0010969
0.0018090452 	0.025645833 	-0.015429319 	1.9800941
0.0018291457 	0.025645833 	-0.015429319 	1.9800941
0.0018492462 	0.01129312 	-0.006480809 	1.926016
0.0018693467 	0.01129312 	-0.006480809 	1.926016
0.0018894472 	0.01129312 	-0.006480809 	1.926016
0.0019095477 	0.007412093 	-0.022654182 	1.9791705
0.0019296482 	0.007412093 	-0.022654182 	1.9791705
0.0019497487 	-0.0019856553 	-0.029903264 	2.0213429
0.0019698492 	-0.0019856553 	-0.029903264 	2.0213429
0.0019899497 	-0.0019856553 	-0.029903264 	2.0213429
0.0020100503 	0.0086356816 	-0.033793539 	2.0015174
0.0020301508 	0.0086356816 	-0.033793539 	2.0015174
0.0020502513 	0.0074079817 	-0.037702854 	1.9681527
0.0020703518 	0.0074079817 	-0.037702854 	1.9681527
0.0020904523 	0.0054050786 	-0.029597672 	1.9576996
0.0021105528 	0.0054050786 	-0.029597672 	1.9576996
0.0021306533 	0.0054050786 	-0.029597672 	1.9576996
0.0021507538 	0.0096013984 	-0.043368191 	1.9518598
0.0021708543 	0.0096013984 	-0.043368191 	1.9518598
0.0021909548 	0.0079305107 	-0.053739838 	1.8686157
0.0022110553 	0.0079305107 	-0.053739838 	1.8686157
0.0022311558 	0.013143364 	-0.050558253 	1.8809264
0.0022512563 	0.013143364 	-0.050558253 	1.8809264
0.0022713568 	0.020673844 	-0.037621949 	1.8539237
0.0022914573 	0.020673844 	-0.037621949 	1.8539237
0.0023115578 	0.020673844 	-0.037621949 	1.8539237
0.0023316583 	0.019361699 	-0.036204694 	1.8167125
0.0023517588 	0.019361699 	-0.036204694 	1.8167125
0.0023718593 	0.0041691771 	-0.037036419 	1.8327185
0.0023919598 	0.0041691771 	-0.037036419 	1.8327185
0.0024120603 	-0.014082117 	-0.044285677 	1.8684438
0.0024321608 	-0.014082117 	-0.044285677 	1.8684438
0.0024522613 	-0.038445353 	-0.021040643 	1.8067197
0.0024723618 	-0.038445353 	-0.021040643 	1.8067197
0.0024924623 	-0.056677023 	0.021084669 	1.7676896
0.0025125628 	-0.056677023 	0.021084669 	1.7676896
0.0025326633 	-0.068749984 	0.039738503 	1.7708328
0.0025527638 	-0.068749984 	0.039738503 	1.7708328
0.0025728643 	-0.072761744 	0.025139925 	1.7513382
0.0025929648 	-0.072761744 	0.025139925 	1.7513382
0.0026130653 	-0.062271772 	0.0098589733 	1.7661624
0.0026331658 	-0.062271772 	0.0098589733 	1.7661624
0.0026532663 	-0.059044755 	-0.026345985 	1.8096104
0.0026733668 	-0.059044755 	-0.026345985 	1.8096104
0.0026934673 	-0.045212147 	-0.04907666 	1.8380804
0.0027135678 	-0.045212147 	-0.04907666 	1.8380804
0.0027336683 	-0.034240405 	-0.060627505 	1.8570831
0.0027537688 	-0.034240405 	-0.060627505 	1.8570831
0.0027738693 	-0.041581484 	-0.054176193 	1.8523903
0.0027939698 	-0.041581484 	-0.054176193 	1.8523903
0.0028140704 	-0.04751276 	-0.020725334 	1.7881723
0.0028341709 	-0.04751276 	-0.020725334 	1.7881723
0.0028542714 	-0.041393507 	-0.027074174 	1.7150997
0.0028743719 	-0.052097048 	-0.0255351 	1.7086712
0.0028944724 	-0.052097048 	-0.0255351 	1.7086712
0.0029145729 	-0.059108871 	-0.017489738 	1.7523958
0.0029346734 	-0.059108871 	-0.017489738 	1.7523958
0.0029547739 	-0.058252148 	0.0041106372 	1.7745266
0.0029748744 	-0.058252148 	0.0041106372 	1.7745266
0.0029949749 	-0.059657661 	0.011309295 	1.7454079
0.0030150754 	-0.052575556 	0.017183749 	1.7460096
0.0030351759 	-0.052575556 	0.017183749 	1.7460096
0.0030552764 	-0.054393946 	0.046493375 	1.7284385
0.0030753769 	-0.054393946 	0.046493375 	1.7284385
0.0030954774 	-0.05206938 	0.068529613 	1.7276796
0.0031155779 	-0.058993775 	0.085370482 	1.7231207
0.0031356784 	-0.058993775 	0.085370482 	1.7231207
0.0031557789 	-0.067445405 	0.11074706 	1.7267632
0.0031758794 	-0.067445405 	0.11074706 	1.7267632
0.0031959799 	-0.059752719 	0.10997828 	1.7199531
0.0032160804 	-0.054112211 	0.063272194 	1.6728021
0.0032361809 	-0.054112211 	0.063272194 	1.6728021
0.0032562814 	-0.049336627 	0.02990642 	1.6854491
0.0032763819 	-0.052084431 	0.04094653 	1.7744374
0.0032964824 	-0.052084431 	0.04094653 	1.7744374
0.0033165829 	-0.05741719 	0.065240098 	1.8341151
0.0033366834 	-0.048930549 	0.079617487 	1.8315892
0.0033567839 	-0.048930549 	0.079617487 	1.8315892
0.0033768844 	-0.044922971 	0.068928822 	1.8228246
0.0033969849 	-0.0419315 	0.029677593 	1.7912966
0.0034170854 	-0.0419315 	0.029677593 	1.7912966
0.0034371859 	-0.032876877 	-0.0075551743 	1.8112678
0.0034572864 	-0.029049697 	-0.0065513652 	1.8570567
0.0034773869 	-0.027616211 	0.017421748 	1.8625689
0.0034974874 	-0.027616211 	0.017421748 	1.8625689
0.0035175879 	-0.0181949 	0.049601946 	1.818698
0.0035376884 	-0.013334908 	0.077055045 	1.8046143
0.0035577889 	-0.017202444 	0.1124982 	1.7776155
0.0035778894 	-0.017202444 	0.1124982 	1.7776155
0.0035979899 	-0.018941742 	0.13586846 	1.7598938
0.0036180905 	-0.0012413423 	0.1310052 	1.7548858
0.003638191 	0.016671828 	0.07504313 	1.7311857
0.0036582915 	0.016671828 	0.07504313 	1.7311857
0.003678392 	0.045807329 	0.046546715 	1.7266549
0.0036984925 	0.068098388 	0.05316961 	1.797137
0.003718593 	0.073624533 	0.0053735258 	1.8289637
0.0037386935 	0.071656527 	-0.075369395 	1.8194603
0.003758794 	0.064149507 	-0.13507659 	1.8109335
0.0037788945 	0.064149507 	-0.13507659 	1.8109335
0.003798995 	0.049600936 	-0.14856505 	1.7919246
0.0038190955 	0.036430679 	-0.06935938 	1.7966784
0.003839196 	0.0096102764 	0.092224632 	1.8299419
0.0038592965 	-0.0090488469 	0.19859985 	1.7227567
0.003879397 	-0.0064807767 	0.15964549 	1.6324567
0.0038994975 	0.00066918121 	0.092233525 	1.4237942
0.003919598 	0.036262157 	0.10711232 	1.160811
0.0039396985 	-0.0015649597 	0.16263856 	1.0534429
0.003959799 	0.0029793522 	0.10794602 	0.81511072
0.0039798995 	-0.016922882 	0.056330573 	0.61271076
0.004 	-0.016922882 	0.056330573 	0.61271076
