0 	-0.01356973 	-0.028350273 	2.0790742
2.0100503e-05 	-0.01356973 	-0.028350273 	2.0790742
4.0201005e-05 	-0.01356973 	-0.028350273 	2.0790742
6.0301508e-05 	0.00013571664 	-0.022490197 	2.0742799
8.040201e-05 	0.00013571664 	-0.022490197 	2.0742799
0.00010050251 	0.00013571664 	-0.022490197 	2.0742799
0.00012060302 	0.0054226626 	-0.015102439 	2.0551643
0.00014070352 	0.0054226626 	-0.015102439 	2.0551643
0.00016080402 	0.0054226626 	-0.015102439 	2.0551643
0.00018090452 	0.021011723 	0.0060879161 	2.0530713
0.00020100503 	0.021011723 	0.0060879161 	2.0530713
0.00022110553 	0.021011723 	0.0060879161 	2.0530713
0.00024120603 	0.02724726 	0.037796649 	2.0739358
0.00026130653 	0.02724726 	0.037796649 	2.0739358
0.00028140704 	0.029366525 	0.048090474 	2.0544919
0.00030150754 	0.029366525 	0.048090474 	2.0544919
0.00032160804 	0.029366525 	0.048090474 	2.0544919
0.00034170854 	0.038603596 	0.062417114 	2.0312759
0.00036180905 	0.038603596 	0.062417114 	2.0312759
0.00038190955 	0.038603596 	0.062417114 	2.0312759
0.00040201005 	0.046298694 	0.063032752 	2.0293899
0.00042211055 	0.046298694 	0.063032752 	2.0293899
0.00044221106 	0.046298694 	0.063032752 	2.0293899
0.00046231156 	0.039303485 	0.079057441 	2.0063867
0.00048241206 	0.039303485 	0.079057441 	2.0063867
0.00050251256 	0.020570253 	0.089494967 	1.9946408
0.00052261307 	0.020570253 	0.089494967 	1.9946408
0.00054271357 	0.020570253 	0.089494967 	1.9946408
0.00056281407 	-0.0030244765 	0.093980143 	1.9643752
0.00058291457 	-0.0030244765 	0.093980143 	1.9643752
0.00060301508 	-0.0030244765 	0.093980143 	1.9643752
0.00062311558 	-0.0024681314 	0.076560622 	1.9885313
0.00064321608 	0.0067502246 	0.070650222 	2.0162626
0.00066331658 	0.0067502246 	0.070650222 	2.0162626
0.00068341709 	0.0016142568 	0.052131045 	2.0367411
0.00070351759 	0.0016142568 	0.052131045 	2.0367411
0.00072361809 	-0.014160539 	0.036674688 	2.0364374
0.00074371859 	-0.014160539 	0.036674688 	2.0364374
0.0007638191 	-0.014160539 	0.036674688 	2.0364374
0.0007839196 	-0.014826248 	0.019180616 	2.0350926
0.0008040201 	-0.014826248 	0.019180616 	2.0350926
0.0008241206 	-0.014826248 	0.019180616 	2.0350926
0.00084422111 	-0.022636115 	0.012821662 	2.0379492
0.00086432161 	-0.022636115 	0.012821662 	2.0379492
0.00088442211 	-0.022636115 	0.012821662 	2.0379492
0.00090452261 	-0.018559773 	0.020726203 	2.0160626
0.00092462312 	-0.013111424 	0.02338538 	2.0351007
0.00094472362 	-0.015509333 	0.021970293 	2.0392941
0.00096482412 	-0.015509333 	0.021970293 	2.0392941
0.00098492462 	-0.015509333 	0.021970293 	2.0392941
0.0010050251 	-0.00086801859 	0.035414681 	2.038611
0.0010251256 	-0.00086801859 	0.035414681 	2.038611
0.0010452261 	-0.00086801859 	0.035414681 	2.038611
0.0010653266 	0.0074070677 	0.032384124 	2.0310682
0.0010854271 	0.0074070677 	0.032384124 	2.0310682
0.0011055276 	0.0074070677 	0.032384124 	2.0310682
0.0011256281 	0.02041735 	0.024489872 	2.0449247
0.0011457286 	0.02041735 	0.024489872 	2.0449247
0.0011658291 	0.02041735 	0.024489872 	2.0449247
0.0011859296 	0.024156647 	0.021152115 	2.0818267
0.0012060302 	0.024156647 	0.021152115 	2.0818267
0.0012261307 	0.024156647 	0.021152115 	2.0818267
0.0012462312 	0.030392784 	0.035207066 	2.0357782
0.0012663317 	0.030392784 	0.035207066 	2.0357782
0.0012864322 	0.030392784 	0.035207066 	2.0357782
0.0013065327 	0.034247193 	0.028238912 	2.0382927
0.0013266332 	0.034247193 	0.028238912 	2.0382927
0.0013467337 	0.034247193 	0.028238912 	2.0382927
0.0013668342 	0.050235467 	0.013929431 	2.0918333
0.0013869347 	0.050235467 	0.013929431 	2.0918333
0.0014070352 	0.050235467 	0.013929431 	2.0918333
0.0014271357 	0.039997033 	0.022755373 	2.0405992
0.0014472362 	0.039997033 	0.022755373 	2.0405992
0.0014673367 	0.039997033 	0.022755373 	2.0405992
0.0014874372 	0.022906345 	0.027857459 	1.9429202
0.0015075377 	0.022906345 	0.027857459 	1.9429202
0.0015276382 	0.018285064 	0.031705078 	1.9242681
0.0015477387 	0.018285064 	0.031705078 	1.9242681
0.0015678392 	0.018285064 	0.031705078 	1.9242681
0.0015879397 	0.018282389 	0.042163152 	1.9292485
0.0016080402 	0.018282389 	0.042163152 	1.9292485
0.0016281407 	0.018282389 	0.042163152 	1.9292485
0.0016482412 	0.023952727 	0.04633275 	1.9732564
0.0016683417 	0.023952727 	0.04633275 	1.9732564
0.0016884422 	0.02784496 	0.046080186 	1.9892238
0.0017085427 	0.02784496 	0.046080186 	1.9892238
0.0017286432 	0.02784496 	0.046080186 	1.9892238
0.0017487437 	0.030138775 	0.034477334 	1.9718633
0.0017688442 	0.030138775 	0.034477334 	1.9718633
0.0017889447 	0.030138775 	0.034477334 	1.9718633
0.0018090452 	0.044430895 	0.029203355 	1.9770054
0.0018291457 	0.044430895 	0.029203355 	1.9770054
0.0018492462 	0.056534081 	0.038261188 	1.9859282
0.0018693467 	0.056534081 	0.038261188 	1.9859282
0.0018894472 	0.056534081 	0.038261188 	1.9859282
0.0019095477 	0.057846299 	0.02782349 	1.9685426
0.0019296482 	0.057846299 	0.02782349 	1.9685426
0.0019497487 	0.061137138 	0.025724732 	1.9665304
0.0019698492 	0.061137138 	0.025724732 	1.9665304
0.0019899497 	0.058596832 	0.040724179 	2.0055018
0.0020100503 	0.058596832 	0.040724179 	2.0055018
0.0020301508 	0.058596832 	0.040724179 	2.0055018
0.0020502513 	0.053959983 	0.042759158 	2.0454251
0.0020703518 	0.053959983 	0.042759158 	2.0454251
0.0020904523 	0.056791742 	0.035144879 	2.0145972
0.0021105528 	0.056791742 	0.035144879 	2.0145972
0.0021306533 	0.056791742 	0.035144879 	2.0145972
0.0021507538 	0.060499561 	0.02110619 	2.0046702
0.0021708543 	0.060499561 	0.02110619 	2.0046702
0.0021909548 	0.054552308 	-0.013256145 	1.9855673
0.0022110553 	0.054552308 	-0.013256145 	1.9855673
0.0022311558 	0.040190765 	-0.0097052397 	2.0174461
0.0022512563 	0.040190765 	-0.0097052397 	2.0174461
0.0022713568 	0.03856614 	0.0040718727 	1.9991596
0.0022914573 	0.03856614 	0.0040718727 	1.9991596
0.0023115578 	0.03856614 	0.0040718727 	1.9991596
0.0023316583 	0.029600929 	0.0039914947 	1.9370067
0.0023517588 	0.029600929 	0.0039914947 	1.9370067
0.0023718593 	0.019018053 	-0.012380964 	1.9667803
0.0023919598 	0.019018053 	-0.012380964 	1.9667803
0.0024120603 	0.0080569008 	-0.034695328 	1.9614895
0.0024321608 	0.0080569008 	-0.034695328 	1.9614895
0.0024522613 	0.013586146 	-0.034838794 	1.9564341
0.0024723618 	0.013586146 	-0.034838794 	1.9564341
0.0024924623 	0.00077495716 	-0.025223663 	2.0108352
0.0025125628 	0.00077495716 	-0.025223663 	2.0108352
0.0025326633 	0.0021012505 	-0.021991122 	1.9984426
0.0025527638 	0.0021012505 	-0.021991122 	1.9984426
0.0025728643 	0.016139984 	-0.042831748 	1.9175196
0.0025929648 	0.016139984 	-0.042831748 	1.9175196
0.0026130653 	0.0087958736 	-0.021649042 	1.9352863
0.0026331658 	0.0087958736 	-0.021649042 	1.9352863
0.0026532663 	0.00056270662 	0.049870597 	1.966208
0.0026733668 	0.00056270662 	0.049870597 	1.966208
0.0026934673 	0.0021133456 	0.12271535 	1.837154
0.0027135678 	0.0021133456 	0.12271535 	1.837154
0.0027336683 	-0.0040911864 	0.1129481 	1.806239
0.0027537688 	-0.0040911864 	0.1129481 	1.806239
0.0027738693 	0.028185117 	0.077269442 	1.7731978
0.0027939698 	0.028185117 	0.077269442 	1.7731978
0.0028140704 	0.032544293 	0.037141516 	1.8098958
0.0028341709 	0.032544293 	0.037141516 	1.8098958
0.0028542714 	0.043809861 	-0.020795425 	1.8876662
0.0028743719 	0.033512306 	-0.033329545 	1.9118498
0.0028944724 	0.033512306 	-0.033329545 	1.9118498
0.0029145729 	0.027327793 	-0.047832879 	1.9075732
0.0029346734 	0.027327793 	-0.047832879 	1.9075732
0.0029547739 	0.047349573 	-0.075420516 	1.9053285
0.0029748744 	0.047349573 	-0.075420516 	1.9053285
0.0029949749 	0.05816894 	-0.072574018 	1.9657394
0.0030150754 	0.051136098 	-0.092732365 	1.9766161
0.0030351759 	0.051136098 	-0.092732365 	1.9766161
0.0030552764 	0.050879649 	-0.057830985 	1.987748
0.0030753769 	0.050879649 	-0.057830985 	1.987748
0.0030954774 	0.041090633 	-0.021463963 	2.0483538
0.0031155779 	0.049851945 	-0.047543035 	2.0532626
0.0031356784 	0.049851945 	-0.047543035 	2.0532626
0.0031557789 	0.048749037 	-0.062218553 	2.0669432
0.0031758794 	0.048749037 	-0.062218553 	2.0669432
0.0031959799 	0.056508067 	-0.071656289 	2.0096918
0.0032160804 	0.058082462 	-0.11728991 	1.9407319
0.0032361809 	0.058082462 	-0.11728991 	1.9407319
0.0032562814 	0.059287313 	-0.12988717 	1.8620824
0.0032763819 	0.061142452 	-0.06153649 	1.747374
0.0032964824 	0.061142452 	-0.06153649 	1.747374
0.0033165829 	0.053892247 	-0.078235557 	1.6834552
0.0033366834 	0.030709255 	-0.12573823 	1.6550571
0.0033567839 	0.030709255 	-0.12573823 	1.6550571
0.0033768844 	0.017800913 	-0.11546119 	1.6428049
0.0033969849 	0.02149745 	-0.058564016 	1.6293489
0.0034170854 	0.02149745 	-0.058564016 	1.6293489
0.0034371859 	0.016772684 	-0.02660897 	1.634911
0.0034572864 	0.016150603 	-0.022166912 	1.632153
0.0034773869 	0.018004014 	0.018073033 	1.6197563
0.0034974874 	0.018004014 	0.018073033 	1.6197563
0.0035175879 	0.018698699 	0.017556763 	1.605394
0.0035376884 	0.015421515 	0.0068595148 	1.6227025
0.0035577889 	0.0090752432 	-0.0036933239 	1.6387573
0.0035778894 	0.0090752432 	-0.0036933239 	1.6387573
0.0035979899 	0.0098595039 	-0.010160036 	1.6148963
0.0036180905 	0.016344996 	0.010933729 	1.5975447
0.003638191 	0.022287882 	0.058330435 	1.605923
0.0036582915 	0.022287882 	0.058330435 	1.605923
0.003678392 	0.019770399 	0.068990979 	1.6635173
0.0036984925 	0.010264697 	0.062173756 	1.7018566
0.003718593 	0.0072804935 	0.071369484 	1.7147213
0.0037386935 	0.0025397449 	0.028586198 	1.7123535
0.003758794 	0.010535515 	-0.023338005 	1.6893579
0.0037788945 	0.010535515 	-0.023338005 	1.6893579
0.003798995 	0.033149877 	0.028757962 	1.6635718
0.0038190955 	0.049178961 	0.0048490022 	1.5000183
0.003839196 	0.039094424 	-0.093603366 	1.3764196
0.0038592965 	0.031225247 	-0.14904175 	1.4093026
0.003879397 	0.010976635 	-0.11186472 	1.4709035
0.0038994975 	-0.016613125 	-0.080012374 	1.3907504
0.003919598 	-0.0024710299 	-0.019162132 	1.0107891
0.0039396985 	-0.0089535657 	0.053724585 	1.0545698
0.003959799 	-0.016598655 	0.27051535 	1.0300382
0.0039798995 	0.0041550382 	0.016628911 	0.39305018
0.004 	0.0041550382 	0.016628911 	0.39305018
