0 	-0.006297179 	0.035058658 	2.1167885
2.0100503e-05 	-0.006297179 	0.035058658 	2.1167885
4.0201005e-05 	-0.006297179 	0.035058658 	2.1167885
6.0301508e-05 	0.0054019001 	0.044730479 	2.124765
8.040201e-05 	0.0054019001 	0.044730479 	2.124765
0.00010050251 	0.0054019001 	0.044730479 	2.124765
0.00012060302 	0.026988013 	0.043229038 	2.1156132
0.00014070352 	0.026988013 	0.043229038 	2.1156132
0.00016080402 	0.026988013 	0.043229038 	2.1156132
0.00018090452 	0.024297512 	0.041962334 	2.1066505
0.00020100503 	0.024297512 	0.041962334 	2.1066505
0.00022110553 	0.024297512 	0.041962334 	2.1066505
0.00024120603 	0.030039355 	0.049313267 	2.099446
0.00026130653 	0.022146638 	0.057692097 	2.1183212
0.00028140704 	0.026110488 	0.064218924 	2.1278575
0.00030150754 	0.026110488 	0.064218924 	2.1278575
0.00032160804 	0.026110488 	0.064218924 	2.1278575
0.00034170854 	0.029719815 	0.060006712 	2.1161017
0.00036180905 	0.029719815 	0.060006712 	2.1161017
0.00038190955 	0.047495756 	0.056951321 	2.1137649
0.00040201005 	0.049934031 	0.047038156 	2.1014579
0.00042211055 	0.049934031 	0.047038156 	2.1014579
0.00044221106 	0.049934031 	0.047038156 	2.1014579
0.00046231156 	0.045909138 	0.046665774 	2.0767768
0.00048241206 	0.045909138 	0.046665774 	2.0767768
0.00050251256 	0.050591841 	0.029620194 	2.0825793
0.00052261307 	0.050591841 	0.029620194 	2.0825793
0.00054271357 	0.050591841 	0.029620194 	2.0825793
0.00056281407 	0.047755449 	0.013050357 	2.0918445
0.00058291457 	0.047755449 	0.013050357 	2.0918445
0.00060301508 	0.047755449 	0.013050357 	2.0918445
0.00062311558 	0.039886433 	-0.0034076327 	2.0836146
0.00064321608 	0.039886433 	-0.0034076327 	2.0836146
0.00066331658 	0.039886433 	-0.0034076327 	2.0836146
0.00068341709 	0.035350732 	-0.010765911 	2.0355951
0.00070351759 	0.042429902 	-0.020550147 	2.0605806
0.00072361809 	0.031040895 	-0.017577134 	2.0568423
0.00074371859 	0.030334207 	-0.013282925 	2.0520584
0.0007638191 	0.030334207 	-0.013282925 	2.0520584
0.0007839196 	0.029602056 	-0.0259504 	2.0426267
0.0008040201 	0.029602056 	-0.0259504 	2.0426267
0.0008241206 	0.032471219 	-0.010852799 	2.036241
0.00084422111 	0.042303915 	-0.021345769 	2.0349314
0.00086432161 	0.042303915 	-0.021345769 	2.0349314
0.00088442211 	0.042303915 	-0.021345769 	2.0349314
0.00090452261 	0.038946978 	-0.028857254 	2.0054219
0.00092462312 	0.038946978 	-0.028857254 	2.0054219
0.00094472362 	0.030253239 	-0.033400662 	2.0107985
0.00096482412 	0.030253239 	-0.033400662 	2.0107985
0.00098492462 	0.030253239 	-0.033400662 	2.0107985
0.0010050251 	0.016447611 	-0.04728332 	2.0656934
0.0010251256 	0.016447611 	-0.04728332 	2.0656934
0.0010452261 	0.016447611 	-0.04728332 	2.0656934
0.0010653266 	0.012675347 	-0.047860539 	2.0923613
0.0010854271 	0.012675347 	-0.047860539 	2.0923613
0.0011055276 	0.012675347 	-0.047860539 	2.0923613
0.0011256281 	0.02285798 	-0.034446335 	2.1003149
0.0011457286 	0.02285798 	-0.034446335 	2.1003149
0.0011658291 	0.02285798 	-0.034446335 	2.1003149
0.0011859296 	0.025106143 	-0.029153068 	2.1009664
0.0012060302 	0.025106143 	-0.029153068 	2.1009664
0.0012261307 	0.025106143 	-0.029153068 	2.1009664
0.0012462312 	0.023522559 	-0.036775219 	2.0750638
0.0012663317 	0.023522559 	-0.036775219 	2.0750638
0.0012864322 	0.023522559 	-0.036775219 	2.0750638
0.0013065327 	0.02942583 	-0.03392389 	2.0891814
0.0013266332 	0.02942583 	-0.03392389 	2.0891814
0.0013467337 	0.02942583 	-0.03392389 	2.0891814
0.0013668342 	0.025317332 	-0.045606697 	2.0920464
0.0013869347 	0.025317332 	-0.045606697 	2.0920464
0.0014070352 	0.025317332 	-0.045606697 	2.0920464
0.0014271357 	0.042303555 	-0.055352662 	2.0538206
0.0014472362 	0.042303555 	-0.055352662 	2.0538206
0.0014673367 	0.042303555 	-0.055352662 	2.0538206
0.0014874372 	0.034733631 	-0.073948526 	2.0889669
0.0015075377 	0.034733631 	-0.073948526 	2.0889669
0.0015276382 	0.0081660037 	-0.065811869 	2.0825289
0.0015477387 	0.0081660037 	-0.065811869 	2.0825289
0.0015678392 	0.0081660037 	-0.065811869 	2.0825289
0.0015879397 	0.010892394 	-0.034862616 	2.0537854
0.0016080402 	0.010892394 	-0.034862616 	2.0537854
0.0016281407 	0.010892394 	-0.034862616 	2.0537854
0.0016482412 	0.0056450806 	-0.012002075 	2.0692633
0.0016683417 	0.0056450806 	-0.012002075 	2.0692633
0.0016884422 	0.0073370084 	-0.017249915 	2.0817893
0.0017085427 	0.0073370084 	-0.017249915 	2.0817893
0.0017286432 	0.0073370084 	-0.017249915 	2.0817893
0.0017487437 	0.021328316 	-0.0075557831 	2.1071132
0.0017688442 	0.021328316 	-0.0075557831 	2.1071132
0.0017889447 	0.021328316 	-0.0075557831 	2.1071132
0.0018090452 	-0.0012186113 	0.012317043 	2.1187041
0.0018291457 	-0.0012186113 	0.012317043 	2.1187041
0.0018492462 	-0.0020352648 	-0.0074705359 	2.0766403
0.0018693467 	-0.0020352648 	-0.0074705359 	2.0766403
0.0018894472 	-0.0020352648 	-0.0074705359 	2.0766403
0.0019095477 	0.0077148266 	-0.031186176 	2.037584
0.0019296482 	0.0077148266 	-0.031186176 	2.037584
0.0019497487 	0.0076041623 	-0.029004166 	2.0284355
0.0019698492 	0.0076041623 	-0.029004166 	2.0284355
0.0019899497 	0.0027128651 	-0.030044216 	2.0248927
0.0020100503 	0.0027128651 	-0.030044216 	2.0248927
0.0020301508 	0.0027128651 	-0.030044216 	2.0248927
0.0020502513 	-0.0063532812 	-0.048467065 	1.9969674
0.0020703518 	-0.0063532812 	-0.048467065 	1.9969674
0.0020904523 	-0.013542082 	-0.097744916 	1.9612636
0.0021105528 	-0.013542082 	-0.097744916 	1.9612636
0.0021306533 	-0.013542082 	-0.097744916 	1.9612636
0.0021507538 	-0.011666287 	-0.12560829 	1.9382968
0.0021708543 	-0.011666287 	-0.12560829 	1.9382968
0.0021909548 	-0.010902793 	-0.10938533 	1.8999537
0.0022110553 	-0.010902793 	-0.10938533 	1.8999537
0.0022311558 	-0.0094784873 	-0.096394512 	1.8836504
0.0022512563 	-0.0094784873 	-0.096394512 	1.8836504
0.0022713568 	-0.016109325 	-0.10279183 	1.8535669
0.0022914573 	-0.016109325 	-0.10279183 	1.8535669
0.0023115578 	-0.016109325 	-0.10279183 	1.8535669
0.0023316583 	-0.023115153 	-0.082635971 	1.8374516
0.0023517588 	-0.023115153 	-0.082635971 	1.8374516
0.0023718593 	-0.016668062 	-0.082295358 	1.8522444
0.0023919598 	-0.016668062 	-0.082295358 	1.8522444
0.0024120603 	0.0011901423 	-0.103575 	1.8798584
0.0024321608 	0.0011901423 	-0.103575 	1.8798584
0.0024522613 	0.017853148 	-0.087763523 	1.8603769
0.0024723618 	0.017853148 	-0.087763523 	1.8603769
0.0024924623 	0.02856366 	-0.062971103 	1.8228564
0.0025125628 	0.02856366 	-0.062971103 	1.8228564
0.0025326633 	0.020802507 	-0.048440154 	1.8280114
0.0025527638 	0.020802507 	-0.048440154 	1.8280114
0.0025728643 	0.0070480346 	-0.012156386 	1.8299687
0.0025929648 	0.0070480346 	-0.012156386 	1.8299687
0.0026130653 	0.016488995 	0.011415311 	1.8162639
0.0026331658 	0.016488995 	0.011415311 	1.8162639
0.0026532663 	0.0023028336 	0.037398253 	1.8489798
0.0026733668 	0.0023028336 	0.037398253 	1.8489798
0.0026934673 	-0.012925202 	0.044157453 	1.8912782
0.0027135678 	-0.012925202 	0.044157453 	1.8912782
0.0027336683 	-0.021826639 	0.040653805 	1.8952618
0.0027537688 	-0.021826639 	0.040653805 	1.8952618
0.0027738693 	-0.01309674 	0.031137659 	1.8525381
0.0027939698 	-0.01309674 	0.031137659 	1.8525381
0.0028140704 	-0.010700705 	0.0081851088 	1.8003488
0.0028341709 	-0.010700705 	0.0081851088 	1.8003488
0.0028542714 	-0.020221635 	0.00087369328 	1.7761572
0.0028743719 	-0.017046468 	-0.0082094846 	1.7202035
0.0028944724 	-0.017046468 	-0.0082094846 	1.7202035
0.0029145729 	-0.015921536 	-0.015703575 	1.7158046
0.0029346734 	-0.015921536 	-0.015703575 	1.7158046
0.0029547739 	-0.01047456 	-0.0068982015 	1.7782428
0.0029748744 	-0.01047456 	-0.0068982015 	1.7782428
0.0029949749 	-0.0070489693 	-0.0053175553 	1.827199
0.0030150754 	-0.0017665982 	-0.0025675713 	1.8173641
0.0030351759 	-0.0017665982 	-0.0025675713 	1.8173641
0.0030552764 	-0.002116506 	0.0053926531 	1.8187028
0.0030753769 	-0.002116506 	0.0053926531 	1.8187028
0.0030954774 	0.0014775409 	0.0078329425 	1.8124132
0.0031155779 	0.0042134004 	0.0065339192 	1.8030019
0.0031356784 	0.0042134004 	0.0065339192 	1.8030019
0.0031557789 	0.0079760607 	0.00066908416 	1.7749696
0.0031758794 	0.0079760607 	0.00066908416 	1.7749696
0.0031959799 	-0.0013181268 	-0.018907745 	1.7264508
0.0032160804 	-0.01043279 	-0.0031623253 	1.7038493
0.0032361809 	-0.01043279 	-0.0031623253 	1.7038493
0.0032562814 	-0.017967281 	0.0064212432 	1.7357287
0.0032763819 	-0.02393158 	-0.026519742 	1.7259194
0.0032964824 	-0.02393158 	-0.026519742 	1.7259194
0.0033165829 	-0.024044046 	-0.058291273 	1.7311959
0.0033366834 	-0.016437746 	-0.082172234 	1.7399718
0.0033567839 	-0.016437746 	-0.082172234 	1.7399718
0.0033768844 	-0.016724091 	-0.091356032 	1.7129017
0.0033969849 	-0.020832503 	-0.059367068 	1.7014035
0.0034170854 	-0.020832503 	-0.059367068 	1.7014035
0.0034371859 	-0.0017848417 	-0.050820037 	1.718433
0.0034572864 	0.0041973184 	-0.11135448 	1.6990409
0.0034773869 	0.0064951929 	-0.11588166 	1.6630904
0.0034974874 	0.0064951929 	-0.11588166 	1.6630904
0.0035175879 	0.020913339 	-0.045136026 	1.7793712
0.0035376884 	0.030244648 	0.0001086113 	1.9546395
0.0035577889 	0.046642717 	-0.0074821928 	2.0232937
0.0035778894 	0.046642717 	-0.0074821928 	2.0232937
0.0035979899 	0.051025002 	-0.020300319 	1.9951272
0.0036180905 	0.048516887 	-0.028919415 	1.9635864
0.003638191 	0.041470181 	-0.016872578 	1.9529234
0.0036582915 	0.041470181 	-0.016872578 	1.9529234
0.003678392 	0.026361531 	0.016705605 	1.9488646
0.0036984925 	0.020924198 	0.055042864 	1.9088642
0.003718593 	0.0054430908 	0.0665384 	1.8104486
0.0037386935 	-0.0089539671 	0.016415946 	1.7675872
0.003758794 	-0.030263037 	-0.006773344 	1.7624501
0.0037788945 	-0.030263037 	-0.006773344 	1.7624501
0.003798995 	-0.038145615 	0.033207102 	1.7666797
0.0038190955 	-0.046140316 	-0.0059463711 	1.7561317
0.003839196 	-0.045539563 	-0.07888985 	1.6900063
0.0038592965 	-0.060528538 	-0.18385172 	1.6582583
0.003879397 	-0.05809411 	-0.17452959 	1.6996631
0.0038994975 	-0.088264867 	-0.19129546 	1.5599227
0.003919598 	-0.081359913 	-0.19893922 	1.330995
0.0039396985 	-0.08495624 	0.1707684 	1.2816086
0.003959799 	-0.018656069 	0.21508625 	1.0171986
0.0039798995 	-0.023046121 	-0.0051533703 	0.60491583
0.004 	-0.023046121 	-0.0051533703 	0.60491583
