0 	0.024407469 	-0.013030711 	2.0651321
2.0100503e-05 	-0.015576677 	-0.022418248 	2.0765205
4.0201005e-05 	-0.015576677 	-0.022418248 	2.0765205
6.0301508e-05 	-0.029680361 	-0.0075952667 	2.0816352
8.040201e-05 	-0.029680361 	-0.0075952667 	2.0816352
0.00010050251 	-0.029680361 	-0.0075952667 	2.0816352
0.00012060302 	-0.031500103 	0.0032724926 	2.0778447
0.00014070352 	-0.031500103 	0.0032724926 	2.0778447
0.00016080402 	-0.031500103 	0.0032724926 	2.0778447
0.00018090452 	-0.032891553 	0.0040059974 	2.0546998
0.00020100503 	-0.032891553 	0.0040059974 	2.0546998
0.00022110553 	-0.032891553 	0.0040059974 	2.0546998
0.00024120603 	-0.029613864 	-0.017213921 	2.0410029
0.00026130653 	-0.029613864 	-0.017213921 	2.0410029
0.00028140704 	-0.038438448 	-0.022942947 	2.0762942
0.00030150754 	-0.038438448 	-0.022942947 	2.0762942
0.00032160804 	-0.038438448 	-0.022942947 	2.0762942
0.00034170854 	-0.040699471 	-0.011718244 	2.1159393
0.00036180905 	-0.040699471 	-0.011718244 	2.1159393
0.00038190955 	-0.040699471 	-0.011718244 	2.1159393
0.00040201005 	-0.035026106 	-0.011429928 	2.0964796
0.00042211055 	-0.035026106 	-0.011429928 	2.0964796
0.00044221106 	-0.035026106 	-0.011429928 	2.0964796
0.00046231156 	-0.036031365 	-0.01645344 	2.0652086
0.00048241206 	-0.036031365 	-0.01645344 	2.0652086
0.00050251256 	-0.03187303 	-0.02374833 	2.0575574
0.00052261307 	-0.03187303 	-0.02374833 	2.0575574
0.00054271357 	-0.03187303 	-0.02374833 	2.0575574
0.00056281407 	-0.034718356 	-0.023084791 	2.0753622
0.00058291457 	-0.034718356 	-0.023084791 	2.0753622
0.00060301508 	-0.034718356 	-0.023084791 	2.0753622
0.00062311558 	-0.040080807 	-0.038255053 	2.0841631
0.00064321608 	-0.040080807 	-0.038255053 	2.0841631
0.00066331658 	-0.040080807 	-0.038255053 	2.0841631
0.00068341709 	-0.037492983 	-0.042199417 	2.0664883
0.00070351759 	-0.037492983 	-0.042199417 	2.0664883
0.00072361809 	-0.039114876 	-0.037505858 	2.0483662
0.00074371859 	-0.039114876 	-0.037505858 	2.0483662
0.0007638191 	-0.039114876 	-0.037505858 	2.0483662
0.0007839196 	-0.042998653 	-0.035685419 	2.046261
0.0008040201 	-0.042998653 	-0.035685419 	2.046261
0.0008241206 	-0.042998653 	-0.035685419 	2.046261
0.00084422111 	-0.046170736 	-0.04469152 	2.0420273
0.00086432161 	-0.046170736 	-0.04469152 	2.0420273
0.00088442211 	-0.046170736 	-0.04469152 	2.0420273
0.00090452261 	-0.052105592 	-0.047512962 	2.0249246
0.00092462312 	-0.052105592 	-0.047512962 	2.0249246
0.00094472362 	-0.064142883 	-0.049685787 	2.0416606
0.00096482412 	-0.064142883 	-0.049685787 	2.0416606
0.00098492462 	-0.064142883 	-0.049685787 	2.0416606
0.0010050251 	-0.063451424 	-0.072607733 	2.0428307
0.0010251256 	-0.063451424 	-0.072607733 	2.0428307
0.0010452261 	-0.063451424 	-0.072607733 	2.0428307
0.0010653266 	-0.051493006 	-0.09606602 	1.980378
0.0010854271 	-0.051493006 	-0.09606602 	1.980378
0.0011055276 	-0.061856838 	-0.087866505 	1.9705997
0.0011256281 	-0.060724852 	-0.099866223 	1.9519517
0.0011457286 	-0.060724852 	-0.099866223 	1.9519517
0.0011658291 	-0.060724852 	-0.099866223 	1.9519517
0.0011859296 	-0.060222013 	-0.089753712 	1.9724953
0.0012060302 	-0.029597604 	-0.089535792 	1.9911404
0.0012261307 	-0.029597604 	-0.089535792 	1.9911404
0.0012462312 	-0.024587645 	-0.075244952 	1.9765825
0.0012663317 	-0.024587645 	-0.075244952 	1.9765825
0.0012864322 	-0.024587645 	-0.075244952 	1.9765825
0.0013065327 	-0.041926124 	-0.054615412 	1.9807021
0.0013266332 	-0.041926124 	-0.054615412 	1.9807021
0.0013467337 	-0.041926124 	-0.054615412 	1.9807021
0.0013668342 	-0.059742425 	-0.039443312 	2.0081522
0.0013869347 	-0.040574538 	-0.030416762 	2.0241811
0.0014070352 	-0.040574538 	-0.030416762 	2.0241811
0.0014271357 	-0.049666041 	-0.041578629 	2.0573392
0.0014472362 	-0.049666041 	-0.041578629 	2.0573392
0.0014673367 	-0.063768747 	-0.022032889 	2.0441279
0.0014874372 	-0.044001429 	-0.030882179 	1.9890942
0.0015075377 	-0.044001429 	-0.030882179 	1.9890942
0.0015276382 	-0.036103776 	-0.00189144 	1.9429427
0.0015477387 	-0.036103776 	-0.00189144 	1.9429427
0.0015678392 	-0.036103776 	-0.00189144 	1.9429427
0.0015879397 	-0.062111606 	-0.0022478763 	1.9911416
0.0016080402 	-0.058548292 	-0.00062130463 	1.9827317
0.0016281407 	-0.058548292 	-0.00062130463 	1.9827317
0.0016482412 	-0.056990649 	-0.030900927 	2.0254558
0.0016683417 	-0.056990649 	-0.030900927 	2.0254558
0.0016884422 	-0.052259953 	-0.035544842 	1.9769841
0.0017085427 	-0.052259953 	-0.035544842 	1.9769841
0.0017286432 	-0.052259953 	-0.035544842 	1.9769841
0.0017487437 	-0.047155595 	0.02454611 	1.9573381
0.0017688442 	-0.047155595 	0.02454611 	1.9573381
0.0017889447 	-0.047155595 	0.02454611 	1.9573381
0.0018090452 	-0.027295041 	0.071509367 	1.9416631
0.0018291457 	-0.027295041 	0.071509367 	1.9416631
0.0018492462 	-0.034584979 	0.060900995 	1.9079544
0.0018693467 	-0.034584979 	0.060900995 	1.9079544
0.0018894472 	-0.034584979 	0.060900995 	1.9079544
0.0019095477 	-0.039614451 	0.05146561 	1.9141372
0.0019296482 	-0.039614451 	0.05146561 	1.9141372
0.0019497487 	-0.062016242 	0.066527811 	1.8956692
0.0019698492 	-0.062016242 	0.066527811 	1.8956692
0.0019899497 	-0.06465203 	0.071045805 	1.8621465
0.0020100503 	-0.06465203 	0.071045805 	1.8621465
0.0020301508 	-0.06465203 	0.071045805 	1.8621465
0.0020502513 	-0.098255479 	0.043961189 	1.8891642
0.0020703518 	-0.098255479 	0.043961189 	1.8891642
0.0020904523 	-0.1088781 	-0.0028167662 	1.8534443
0.0021105528 	-0.1088781 	-0.0028167662 	1.8534443
0.0021306533 	-0.1088781 	-0.0028167662 	1.8534443
0.0021507538 	-0.08890343 	-0.035049022 	1.8274431
0.0021708543 	-0.08890343 	-0.035049022 	1.8274431
0.0021909548 	-0.092499881 	-0.044698901 	1.8496138
0.0022110553 	-0.092499881 	-0.044698901 	1.8496138
0.0022311558 	-0.070747267 	-0.065076363 	1.8731264
0.0022512563 	-0.070747267 	-0.065076363 	1.8731264
0.0022713568 	-0.050814136 	-0.055034543 	1.857972
0.0022914573 	-0.050814136 	-0.055034543 	1.857972
0.0023115578 	-0.050814136 	-0.055034543 	1.857972
0.0023316583 	-0.051707602 	-0.030082986 	1.8844875
0.0023517588 	-0.051707602 	-0.030082986 	1.8844875
0.0023718593 	-0.045248514 	-0.015935259 	1.9228827
0.0023919598 	-0.045248514 	-0.015935259 	1.9228827
0.0024120603 	-0.032971546 	-0.011474433 	1.8917925
0.0024321608 	-0.032971546 	-0.011474433 	1.8917925
0.0024522613 	-0.028345419 	-0.028501743 	1.8934423
0.0024723618 	-0.028345419 	-0.028501743 	1.8934423
0.0024924623 	-0.028076738 	-0.0097137274 	1.8736364
0.0025125628 	-0.028076738 	-0.0097137274 	1.8736364
0.0025326633 	-0.02409366 	0.013918041 	1.8543245
0.0025527638 	-0.02409366 	0.013918041 	1.8543245
0.0025728643 	-0.026589413 	0.015058967 	1.8393107
0.0025929648 	-0.026589413 	0.015058967 	1.8393107
0.0026130653 	-0.053809508 	0.062065698 	1.803474
0.0026331658 	-0.053809508 	0.062065698 	1.803474
0.0026532663 	-0.045096337 	0.094183972 	1.7772606
0.0026733668 	-0.045096337 	0.094183972 	1.7772606
0.0026934673 	-0.057171021 	0.068071737 	1.7581481
0.0027135678 	-0.057171021 	0.068071737 	1.7581481
0.0027336683 	-0.077668941 	0.04001784 	1.7546719
0.0027537688 	-0.077668941 	0.04001784 	1.7546719
0.0027738693 	-0.080489592 	0.041987285 	1.7373738
0.0027939698 	-0.080489592 	0.041987285 	1.7373738
0.0028140704 	-0.074840603 	0.043242695 	1.7561775
0.0028341709 	-0.074840603 	0.043242695 	1.7561775
0.0028542714 	-0.061127224 	0.050829087 	1.7654914
0.0028743719 	-0.052797424 	0.063018662 	1.6899334
0.0028944724 	-0.052797424 	0.063018662 	1.6899334
0.0029145729 	-0.033156175 	0.039648557 	1.6283372
0.0029346734 	-0.033156175 	0.039648557 	1.6283372
0.0029547739 	-0.025163397 	-0.0054412791 	1.625944
0.0029748744 	-0.025163397 	-0.0054412791 	1.625944
0.0029949749 	0.0033123142 	-0.06785749 	1.7361363
0.0030150754 	0.0094186289 	-0.057707697 	1.7993388
0.0030351759 	0.0094186289 	-0.057707697 	1.7993388
0.0030552764 	0.021769821 	-0.014480496 	1.7967183
0.0030753769 	0.021769821 	-0.014480496 	1.7967183
0.0030954774 	0.023852692 	0.035972671 	1.7554038
0.0031155779 	0.041520373 	0.027859658 	1.7088951
0.0031356784 	0.041520373 	0.027859658 	1.7088951
0.0031557789 	0.039955676 	-0.015497172 	1.6667458
0.0031758794 	0.039955676 	-0.015497172 	1.6667458
0.0031959799 	0.033793747 	-0.014804391 	1.6552521
0.0032160804 	0.021802174 	-0.0051260363 	1.6550402
0.0032361809 	0.021802174 	-0.0051260363 	1.6550402
0.0032562814 	0.010181595 	-0.01110415 	1.6845429
0.0032763819 	-0.00034296286 	-0.041568712 	1.7171176
0.0032964824 	-0.00034296286 	-0.041568712 	1.7171176
0.0033165829 	-0.0039477026 	-0.08490917 	1.7249873
0.0033366834 	0.0011087922 	-0.11386018 	1.7228751
0.0033567839 	0.0011087922 	-0.11386018 	1.7228751
0.0033768844 	0.0084293606 	-0.11808359 	1.7194472
0.0033969849 	0.013874266 	-0.10994928 	1.7033901
0.0034170854 	0.013874266 	-0.10994928 	1.7033901
0.0034371859 	0.017965387 	-0.12449527 	1.696279
0.0034572864 	0.022692825 	-0.14945632 	1.7037042
0.0034773869 	0.021967358 	-0.15120714 	1.6998634
0.0034974874 	0.021967358 	-0.15120714 	1.6998634
0.0035175879 	0.021411797 	-0.10429557 	1.6912144
0.0035376884 	0.022106022 	-0.044618123 	1.6679166
0.0035577889 	0.021253364 	-0.020437941 	1.6387216
0.0035778894 	0.021253364 	-0.020437941 	1.6387216
0.0035979899 	0.027024106 	-0.016409998 	1.6377349
0.0036180905 	0.040656853 	-0.014041654 	1.6373252
0.003638191 	0.045040129 	0.012105268 	1.612117
0.0036582915 	0.045040129 	0.012105268 	1.612117
0.003678392 	0.044672706 	0.052942795 	1.5707011
0.0036984925 	0.046417458 	0.0047815566 	1.524604
0.003718593 	0.045660366 	-0.11803893 	1.5230338
0.0037386935 	0.039840098 	-0.19285728 	1.537564
0.003758794 	0.033109455 	-0.16401659 	1.5571667
0.0037788945 	0.033109455 	-0.16401659 	1.5571667
0.003798995 	0.024933556 	-0.11225388 	1.6021552
0.0038190955 	0.0096828176 	-0.084898259 	1.609843
0.003839196 	0.0037502974 	-0.071786434 	1.5705266
0.0038592965 	0.00037038763 	-0.0051451692 	1.5284229
0.003879397 	0.00234626 	0.042054707 	1.3755566
0.0038994975 	0.014065577 	0.12232979 	1.2208924
0.003919598 	-0.014037857 	0.018897173 	1.1942601
0.0039396985 	0.041422245 	0.066672105 	0.99645501
0.003959799 	-0.0075220962 	-0.14686412 	1.2259755
0.0039798995 	0.018500098 	0.15531204 	0.44392661
0.004 	0.018500098 	0.15531204 	0.44392661
