0 	0.040958195 	-0.02994956 	2.0665579
2.0100503e-05 	0.040958195 	-0.02994956 	2.0665579
4.0201005e-05 	0.040958195 	-0.02994956 	2.0665579
6.0301508e-05 	0.022922114 	-0.034177318 	2.0677123
8.040201e-05 	0.022922114 	-0.034177318 	2.0677123
0.00010050251 	0.022922114 	-0.034177318 	2.0677123
0.00012060302 	0.017628982 	-0.031981003 	2.0665118
0.00014070352 	0.017628982 	-0.031981003 	2.0665118
0.00016080402 	0.017628982 	-0.031981003 	2.0665118
0.00018090452 	0.017189378 	-0.029461351 	2.0560472
0.00020100503 	0.017189378 	-0.029461351 	2.0560472
0.00022110553 	0.0040950289 	-0.031700343 	2.0591787
0.00024120603 	0.0057694733 	-0.027133567 	2.0789996
0.00026130653 	0.0057694733 	-0.027133567 	2.0789996
0.00028140704 	0.0039136526 	-0.018513681 	2.0771887
0.00030150754 	0.0039136526 	-0.018513681 	2.0771887
0.00032160804 	0.0039136526 	-0.018513681 	2.0771887
0.00034170854 	-0.0035479636 	-0.012036272 	2.0827893
0.00036180905 	-0.0035479636 	-0.012036272 	2.0827893
0.00038190955 	-0.0035479636 	-0.012036272 	2.0827893
0.00040201005 	0.0098981633 	-0.017290892 	2.1031303
0.00042211055 	0.0098981633 	-0.017290892 	2.1031303
0.00044221106 	0.0098981633 	-0.017290892 	2.1031303
0.00046231156 	0.00028335585 	-0.025458694 	2.1042098
0.00048241206 	0.00028335585 	-0.025458694 	2.1042098
0.00050251256 	-0.001395235 	-0.044260035 	2.1135954
0.00052261307 	-0.001395235 	-0.044260035 	2.1135954
0.00054271357 	-0.001395235 	-0.044260035 	2.1135954
0.00056281407 	-0.0048604479 	-0.031439571 	2.1167048
0.00058291457 	-0.0048604479 	-0.031439571 	2.1167048
0.00060301508 	-0.0048604479 	-0.031439571 	2.1167048
0.00062311558 	-0.012479612 	-0.022128799 	2.0978694
0.00064321608 	-0.012479612 	-0.022128799 	2.0978694
0.00066331658 	-0.012479612 	-0.022128799 	2.0978694
0.00068341709 	-0.01768144 	-0.029454891 	2.0645486
0.00070351759 	-0.01768144 	-0.029454891 	2.0645486
0.00072361809 	-0.024102591 	-0.026332687 	2.0518094
0.00074371859 	-0.024102591 	-0.026332687 	2.0518094
0.0007638191 	-0.024102591 	-0.026332687 	2.0518094
0.0007839196 	-0.035664512 	-0.016947362 	2.0461564
0.0008040201 	-0.035664512 	-0.016947362 	2.0461564
0.0008241206 	-0.035664512 	-0.016947362 	2.0461564
0.00084422111 	-0.035986576 	-0.0069522092 	2.0547444
0.00086432161 	-0.035986576 	-0.0069522092 	2.0547444
0.00088442211 	-0.035986576 	-0.0069522092 	2.0547444
0.00090452261 	-0.03547211 	-0.0091938137 	2.0600876
0.00092462312 	-0.03547211 	-0.0091938137 	2.0600876
0.00094472362 	-0.033306083 	-0.012712801 	2.0332457
0.00096482412 	-0.033306083 	-0.012712801 	2.0332457
0.00098492462 	-0.033306083 	-0.012712801 	2.0332457
0.0010050251 	-0.035311947 	-0.010762172 	2.0109549
0.0010251256 	-0.035311947 	-0.010762172 	2.0109549
0.0010452261 	-0.035311947 	-0.010762172 	2.0109549
0.0010653266 	-0.030496166 	-0.0046747678 	1.9873289
0.0010854271 	-0.030496166 	-0.0046747678 	1.9873289
0.0011055276 	-0.030496166 	-0.0046747678 	1.9873289
0.0011256281 	-0.02325215 	0.0032057468 	1.9963098
0.0011457286 	-0.02325215 	0.0032057468 	1.9963098
0.0011658291 	-0.02325215 	0.0032057468 	1.9963098
0.0011859296 	-0.014720734 	-0.0008851344 	1.9888413
0.0012060302 	-0.014720734 	-0.0008851344 	1.9888413
0.0012261307 	-0.014720734 	-0.0008851344 	1.9888413
0.0012462312 	-0.020720572 	0.004426379 	1.946983
0.0012663317 	-0.020720572 	0.004426379 	1.946983
0.0012864322 	-0.020720572 	0.004426379 	1.946983
0.0013065327 	-0.012059682 	0.0033279628 	1.9527231
0.0013266332 	-0.012059682 	0.0033279628 	1.9527231
0.0013467337 	-0.012059682 	0.0033279628 	1.9527231
0.0013668342 	-0.015975407 	-0.0072139483 	1.9764856
0.0013869347 	-0.015975407 	-0.0072139483 	1.9764856
0.0014070352 	-0.015975407 	-0.0072139483 	1.9764856
0.0014271357 	-0.0092577165 	-0.02638963 	2.0138519
0.0014472362 	-0.0092577165 	-0.02638963 	2.0138519
0.0014673367 	-0.0092577165 	-0.02638963 	2.0138519
0.0014874372 	-0.007892086 	-0.021349926 	2.0451628
0.0015075377 	-0.007892086 	-0.021349926 	2.0451628
0.0015276382 	-0.016346256 	0.0067087998 	2.0184737
0.0015477387 	-0.016346256 	0.0067087998 	2.0184737
0.0015678392 	-0.016346256 	0.0067087998 	2.0184737
0.0015879397 	-0.029751776 	0.0015867968 	1.939617
0.0016080402 	-0.029751776 	0.0015867968 	1.939617
0.0016281407 	-0.029751776 	0.0015867968 	1.939617
0.0016482412 	-0.035844623 	-0.019260921 	1.9341176
0.0016683417 	-0.035844623 	-0.019260921 	1.9341176
0.0016884422 	-0.054228256 	-0.048030774 	1.963643
0.0017085427 	-0.054228256 	-0.048030774 	1.963643
0.0017286432 	-0.054228256 	-0.048030774 	1.963643
0.0017487437 	-0.059045422 	-0.069678041 	1.932634
0.0017688442 	-0.059045422 	-0.069678041 	1.932634
0.0017889447 	-0.059045422 	-0.069678041 	1.932634
0.0018090452 	-0.077537332 	-0.072929007 	1.9221618
0.0018291457 	-0.077537332 	-0.072929007 	1.9221618
0.0018492462 	-0.090796587 	-0.068141322 	1.9315188
0.0018693467 	-0.090796587 	-0.068141322 	1.9315188
0.0018894472 	-0.090796587 	-0.068141322 	1.9315188
0.0019095477 	-0.090780452 	-0.062723337 	1.9418741
0.0019296482 	-0.090780452 	-0.062723337 	1.9418741
0.0019497487 	-0.09338975 	-0.074077352 	1.9644343
0.0019698492 	-0.09338975 	-0.074077352 	1.9644343
0.0019899497 	-0.065030897 	-0.068997366 	1.9194658
0.0020100503 	-0.065030897 	-0.068997366 	1.9194658
0.0020301508 	-0.065030897 	-0.068997366 	1.9194658
0.0020502513 	-0.063142105 	-0.043979292 	1.8995273
0.0020703518 	-0.063142105 	-0.043979292 	1.8995273
0.0020904523 	-0.071940407 	-0.035610804 	1.9041596
0.0021105528 	-0.071940407 	-0.035610804 	1.9041596
0.0021306533 	-0.071940407 	-0.035610804 	1.9041596
0.0021507538 	-0.055568002 	-0.025887688 	1.8897775
0.0021708543 	-0.055568002 	-0.025887688 	1.8897775
0.0021909548 	-0.046450965 	-0.025663364 	1.914963
0.0022110553 	-0.046450965 	-0.025663364 	1.914963
0.0022311558 	-0.035993798 	0.011582557 	1.9173719
0.0022512563 	-0.035993798 	0.011582557 	1.9173719
0.0022713568 	-0.029631778 	0.030597069 	1.9621368
0.0022914573 	-0.029631778 	0.030597069 	1.9621368
0.0023115578 	-0.029631778 	0.030597069 	1.9621368
0.0023316583 	-0.033966657 	0.039825056 	2.006555
0.0023517588 	-0.033966657 	0.039825056 	2.006555
0.0023718593 	-0.01592523 	0.060835345 	1.984779
0.0023919598 	-0.01592523 	0.060835345 	1.984779
0.0024120603 	-0.021223884 	0.03959199 	1.932343
0.0024321608 	-0.021223884 	0.03959199 	1.932343
0.0024522613 	-0.020659513 	0.019155641 	1.9064434
0.0024723618 	-0.020659513 	0.019155641 	1.9064434
0.0024924623 	-0.025134091 	0.026642625 	1.9056457
0.0025125628 	-0.025134091 	0.026642625 	1.9056457
0.0025326633 	-0.026252126 	0.028493296 	1.8796992
0.0025527638 	-0.026252126 	0.028493296 	1.8796992
0.0025728643 	-0.01460613 	0.034328741 	1.8599796
0.0025929648 	-0.01460613 	0.034328741 	1.8599796
0.0026130653 	-0.010186384 	0.03676318 	1.9108499
0.0026331658 	-0.010186384 	0.03676318 	1.9108499
0.0026532663 	-0.0032564111 	0.021700973 	1.9398103
0.0026733668 	-0.0032564111 	0.021700973 	1.9398103
0.0026934673 	0.0008299232 	0.00059025965 	1.9405337
0.0027135678 	0.0008299232 	0.00059025965 	1.9405337
0.0027336683 	0.0048673743 	-0.022186856 	1.9403872
0.0027537688 	0.0048673743 	-0.022186856 	1.9403872
0.0027738693 	0.014083727 	-0.032385959 	1.9407956
0.0027939698 	0.014083727 	-0.032385959 	1.9407956
0.0028140704 	0.029054625 	-0.023279972 	1.9490377
0.0028341709 	0.029054625 	-0.023279972 	1.9490377
0.0028542714 	0.046211703 	-0.013702132 	1.929752
0.0028743719 	0.051772314 	-0.014967174 	1.9134785
0.0028944724 	0.051772314 	-0.014967174 	1.9134785
0.0029145729 	0.051597377 	-0.038761913 	1.9372965
0.0029346734 	0.051597377 	-0.038761913 	1.9372965
0.0029547739 	0.049676269 	-0.041332697 	1.9327057
0.0029748744 	0.049676269 	-0.041332697 	1.9327057
0.0029949749 	0.035127665 	-0.036234407 	1.8928331
0.0030150754 	0.016999661 	-0.021012218 	1.8539337
0.0030351759 	0.016999661 	-0.021012218 	1.8539337
0.0030552764 	-0.014233899 	0.021874497 	1.7765405
0.0030753769 	-0.014233899 	0.021874497 	1.7765405
0.0030954774 	-0.051510663 	0.01171727 	1.6785536
0.0031155779 	-0.066587849 	-0.037430972 	1.7153977
0.0031356784 	-0.066587849 	-0.037430972 	1.7153977
0.0031557789 	-0.07460441 	-0.039002354 	1.7346333
0.0031758794 	-0.07460441 	-0.039002354 	1.7346333
0.0031959799 	-0.096736644 	-0.048083257 	1.6989276
0.0032160804 	-0.10538723 	-0.045923861 	1.7317871
0.0032361809 	-0.10538723 	-0.045923861 	1.7317871
0.0032562814 	-0.099719245 	-0.035207913 	1.7423203
0.0032763819 	-0.087515457 	-0.042186649 	1.756141
0.0032964824 	-0.087515457 	-0.042186649 	1.756141
0.0033165829 	-0.071017691 	-0.059321534 	1.7733409
0.0033366834 	-0.048144679 	-0.060038094 	1.7936279
0.0033567839 	-0.048144679 	-0.060038094 	1.7936279
0.0033768844 	-0.018462697 	-0.056957926 	1.8088204
0.0033969849 	0.012993856 	-0.05369724 	1.8053845
0.0034170854 	0.012993856 	-0.05369724 	1.8053845
0.0034371859 	0.041563533 	-0.057146298 	1.792545
0.0034572864 	0.053404513 	-0.051046007 	1.7729592
0.0034773869 	0.049335738 	-0.045599987 	1.7763402
0.0034974874 	0.049335738 	-0.045599987 	1.7763402
0.0035175879 	0.038280652 	-0.073006372 	1.7939377
0.0035376884 	0.031007646 	-0.1154624 	1.7304259
0.0035577889 	0.026341578 	-0.1192264 	1.6327907
0.0035778894 	0.026341578 	-0.1192264 	1.6327907
0.0035979899 	0.023595948 	-0.036998032 	1.6249382
0.0036180905 	0.026769044 	0.026210101 	1.674262
0.003638191 	0.0259863 	0.04790607 	1.6795298
0.0036582915 	0.0259863 	0.04790607 	1.6795298
0.003678392 	0.011805418 	0.03616725 	1.6565924
0.0036984925 	-0.0075991974 	-0.0063307613 	1.6369213
0.003718593 	-0.016108632 	-0.042868368 	1.5847556
0.0037386935 	-0.014655958 	-0.14310239 	1.5127099
0.003758794 	-0.01966224 	-0.24114277 	1.4892653
0.0037788945 	-0.01966224 	-0.24114277 	1.4892653
0.003798995 	-0.009352044 	-0.2006088 	1.5308689
0.0038190955 	-0.014222953 	-0.10489514 	1.5241239
0.003839196 	0.0064626831 	0.036662885 	1.4090193
0.0038592965 	0.002486022 	0.1924737 	1.2687182
0.003879397 	-0.024714059 	0.038963261 	1.1990922
0.0038994975 	-0.02681744 	-0.16428192 	1.2450464
0.003919598 	-0.033467278 	0.074269119 	1.1805633
0.0039396985 	0.025174602 	0.27537607 	1.035782
0.003959799 	-0.011146966 	0.32110116 	1.0755363
0.0039798995 	0.010840226 	-0.10345124 	0.2903331
0.004 	0.010840226 	-0.10345124 	0.2903331
