0 	-0.0029818688 	0.00089876701 	2.0438203
2.0100503e-05 	-0.0029818688 	0.00089876701 	2.0438203
4.0201005e-05 	-0.0029818688 	0.00089876701 	2.0438203
6.0301508e-05 	-0.0017873361 	-0.0038643251 	2.0824118
8.040201e-05 	-0.0017873361 	-0.0038643251 	2.0824118
0.00010050251 	-0.0017873361 	-0.0038643251 	2.0824118
0.00012060302 	0.0082812123 	-0.0076643339 	2.1139759
0.00014070352 	0.0082812123 	-0.0076643339 	2.1139759
0.00016080402 	0.0082812123 	-0.0076643339 	2.1139759
0.00018090452 	0.015273921 	-0.006135224 	2.1111076
0.00020100503 	0.015273921 	-0.006135224 	2.1111076
0.00022110553 	0.015273921 	-0.006135224 	2.1111076
0.00024120603 	0.021380146 	-0.0078779467 	2.1022677
0.00026130653 	0.021380146 	-0.0078779467 	2.1022677
0.00028140704 	0.020619722 	-0.012031521 	2.0898954
0.00030150754 	0.020619722 	-0.012031521 	2.0898954
0.00032160804 	0.020619722 	-0.012031521 	2.0898954
0.00034170854 	0.026993504 	-0.0036692258 	2.0934982
0.00036180905 	0.026993504 	-0.0036692258 	2.0934982
0.00038190955 	0.026993504 	-0.0036692258 	2.0934982
0.00040201005 	0.022969947 	0.0019326498 	2.0839163
0.00042211055 	0.022969947 	0.0019326498 	2.0839163
0.00044221106 	0.022969947 	0.0019326498 	2.0839163
0.00046231156 	0.0032095616 	-0.006713298 	2.0377693
0.00048241206 	0.0032095616 	-0.006713298 	2.0377693
0.00050251256 	0.006782141 	-0.0012487236 	2.0462624
0.00052261307 	0.006782141 	-0.0012487236 	2.0462624
0.00054271357 	0.006782141 	-0.0012487236 	2.0462624
0.00056281407 	0.011280688 	0.0030992478 	2.0654974
0.00058291457 	0.011280688 	0.0030992478 	2.0654974
0.00060301508 	0.011280688 	0.0030992478 	2.0654974
0.00062311558 	0.018933779 	0.0049480578 	2.0882775
0.00064321608 	0.018933779 	0.0049480578 	2.0882775
0.00066331658 	0.018933779 	0.0049480578 	2.0882775
0.00068341709 	0.021297435 	0.005195002 	2.1104909
0.00070351759 	0.021297435 	0.005195002 	2.1104909
0.00072361809 	0.012225391 	-0.0050476351 	2.0815407
0.00074371859 	0.012225391 	-0.0050476351 	2.0815407
0.0007638191 	0.012225391 	-0.0050476351 	2.0815407
0.0007839196 	0.0052460907 	0.0067304248 	2.0735918
0.0008040201 	0.0052460907 	0.0067304248 	2.0735918
0.0008241206 	0.0052460907 	0.0067304248 	2.0735918
0.00084422111 	0.0013013207 	0.022932178 	2.0713054
0.00086432161 	0.0013013207 	0.022932178 	2.0713054
0.00088442211 	0.0013013207 	0.022932178 	2.0713054
0.00090452261 	-0.0013738689 	0.023524038 	2.0470619
0.00092462312 	-0.0013738689 	0.023524038 	2.0470619
0.00094472362 	0.0073422388 	0.0021167992 	2.0489769
0.00096482412 	0.0073422388 	0.0021167992 	2.0489769
0.00098492462 	0.0073422388 	0.0021167992 	2.0489769
0.0010050251 	0.01254129 	-0.01709658 	2.0231819
0.0010251256 	0.01254129 	-0.01709658 	2.0231819
0.0010452261 	0.01254129 	-0.01709658 	2.0231819
0.0010653266 	0.0066711959 	-0.049288536 	1.9935134
0.0010854271 	0.0066711959 	-0.049288536 	1.9935134
0.0011055276 	0.0066711959 	-0.049288536 	1.9935134
0.0011256281 	0.0019152526 	-0.067251606 	2.0142549
0.0011457286 	0.0019152526 	-0.067251606 	2.0142549
0.0011658291 	0.0019152526 	-0.067251606 	2.0142549
0.0011859296 	-0.00058198201 	-0.078544841 	1.9808633
0.0012060302 	-0.00058198201 	-0.078544841 	1.9808633
0.0012261307 	-0.00058198201 	-0.078544841 	1.9808633
0.0012462312 	0.018004946 	-0.084780735 	1.9725098
0.0012663317 	-0.0013342625 	-0.097392242 	1.9564065
0.0012864322 	-0.0013342625 	-0.097392242 	1.9564065
0.0013065327 	0.0011128068 	-0.091639896 	1.9443266
0.0013266332 	0.0011128068 	-0.091639896 	1.9443266
0.0013467337 	0.0011128068 	-0.091639896 	1.9443266
0.0013668342 	0.011000194 	-0.050102786 	1.9395954
0.0013869347 	0.011000194 	-0.050102786 	1.9395954
0.0014070352 	0.011000194 	-0.050102786 	1.9395954
0.0014271357 	0.0043487357 	-0.021888109 	1.9389919
0.0014472362 	0.0043487357 	-0.021888109 	1.9389919
0.0014673367 	0.0043487357 	-0.021888109 	1.9389919
0.0014874372 	-0.014205226 	-0.051410444 	1.9340264
0.0015075377 	-0.014205226 	-0.051410444 	1.9340264
0.0015276382 	-0.018971914 	-0.05469346 	1.940995
0.0015477387 	-0.018971914 	-0.05469346 	1.940995
0.0015678392 	-0.018971914 	-0.05469346 	1.940995
0.0015879397 	-0.021934384 	-0.039983017 	1.9242017
0.0016080402 	-0.021934384 	-0.039983017 	1.9242017
0.0016281407 	-0.021934384 	-0.039983017 	1.9242017
0.0016482412 	-0.023059266 	-0.035789017 	1.9123528
0.0016683417 	-0.023059266 	-0.035789017 	1.9123528
0.0016884422 	-0.016328429 	-0.007005968 	1.9019186
0.0017085427 	-0.016328429 	-0.007005968 	1.9019186
0.0017286432 	-0.016328429 	-0.007005968 	1.9019186
0.0017487437 	-0.0042134734 	-0.0030160602 	1.9040681
0.0017688442 	-0.0042134734 	-0.0030160602 	1.9040681
0.0017889447 	-0.0042134734 	-0.0030160602 	1.9040681
0.0018090452 	0.011320492 	0.016464302 	1.9261314
0.0018291457 	0.011320492 	0.016464302 	1.9261314
0.0018492462 	0.019967247 	0.030176019 	1.9272445
0.0018693467 	0.019967247 	0.030176019 	1.9272445
0.0018894472 	0.019967247 	0.030176019 	1.9272445
0.0019095477 	0.022679221 	0.031553022 	1.921058
0.0019296482 	0.022679221 	0.031553022 	1.921058
0.0019497487 	0.028321085 	0.03849066 	1.901024
0.0019698492 	0.028321085 	0.03849066 	1.901024
0.0019899497 	0.024144979 	0.02527491 	1.8831562
0.0020100503 	0.024144979 	0.02527491 	1.8831562
0.0020301508 	0.024144979 	0.02527491 	1.8831562
0.0020502513 	0.03398644 	0.031182795 	1.8589062
0.0020703518 	0.03398644 	0.031182795 	1.8589062
0.0020904523 	0.022485013 	0.044730622 	1.8827904
0.0021105528 	0.022485013 	0.044730622 	1.8827904
0.0021306533 	0.022485013 	0.044730622 	1.8827904
0.0021507538 	0.021199553 	0.04443754 	1.9040838
0.0021708543 	0.021199553 	0.04443754 	1.9040838
0.0021909548 	0.021798632 	0.0017432808 	1.9023114
0.0022110553 	0.021798632 	0.0017432808 	1.9023114
0.0022311558 	0.019777098 	-0.0090604175 	1.8703069
0.0022512563 	0.019777098 	-0.0090604175 	1.8703069
0.0022713568 	0.036008201 	0.0026529411 	1.8609367
0.0022914573 	0.036008201 	0.0026529411 	1.8609367
0.0023115578 	0.036008201 	0.0026529411 	1.8609367
0.0023316583 	0.043083655 	0.0015772509 	1.8622135
0.0023517588 	0.043083655 	0.0015772509 	1.8622135
0.0023718593 	0.056599693 	-0.0034488678 	1.8447818
0.0023919598 	0.056599693 	-0.0034488678 	1.8447818
0.0024120603 	0.079101648 	0.029005393 	1.8563669
0.0024321608 	0.079101648 	0.029005393 	1.8563669
0.0024522613 	0.10059771 	0.048250714 	1.8552307
0.0024723618 	0.10059771 	0.048250714 	1.8552307
0.0024924623 	0.11326155 	0.064046571 	1.8757527
0.0025125628 	0.11326155 	0.064046571 	1.8757527
0.0025326633 	0.10730859 	0.048115871 	1.8965048
0.0025527638 	0.10730859 	0.048115871 	1.8965048
0.0025728643 	0.077650383 	0.01827873 	1.8733084
0.0025929648 	0.077650383 	0.01827873 	1.8733084
0.0026130653 	0.057326486 	0.051799561 	1.9081357
0.0026331658 	0.057326486 	0.051799561 	1.9081357
0.0026532663 	0.040008043 	0.088098541 	1.949641
0.0026733668 	0.040008043 	0.088098541 	1.949641
0.0026934673 	0.031912934 	0.079652631 	1.8950444
0.0027135678 	0.031912934 	0.079652631 	1.8950444
0.0027336683 	0.030818043 	0.050299973 	1.8355262
0.0027537688 	0.030818043 	0.050299973 	1.8355262
0.0027738693 	0.034402185 	0.032897122 	1.8311048
0.0027939698 	0.034402185 	0.032897122 	1.8311048
0.0028140704 	0.034785112 	0.024362322 	1.8268485
0.0028341709 	0.034785112 	0.024362322 	1.8268485
0.0028542714 	0.039691565 	0.0091828625 	1.8565626
0.0028743719 	0.030414354 	-0.011936983 	1.90084
0.0028944724 	0.030414354 	-0.011936983 	1.90084
0.0029145729 	0.011171212 	0.0094326313 	1.9087057
0.0029346734 	0.011171212 	0.0094326313 	1.9087057
0.0029547739 	0.0022743124 	0.03754723 	1.8940813
0.0029748744 	0.0022743124 	0.03754723 	1.8940813
0.0029949749 	-0.0015600068 	0.061407762 	1.8813125
0.0030150754 	-0.0064776155 	0.068328319 	1.8804024
0.0030351759 	-0.0064776155 	0.068328319 	1.8804024
0.0030552764 	-0.0072583119 	0.013600432 	1.8404151
0.0030753769 	-0.0072583119 	0.013600432 	1.8404151
0.0030954774 	-0.006574105 	-0.021551916 	1.7986653
0.0031155779 	-0.0017794378 	-0.0056175737 	1.786988
0.0031356784 	-0.0017794378 	-0.0056175737 	1.786988
0.0031557789 	-0.0030470173 	-0.017696129 	1.7675275
0.0031758794 	-0.0030470173 	-0.017696129 	1.7675275
0.0031959799 	-0.014257566 	-0.037703804 	1.8085955
0.0032160804 	-0.028827274 	-0.041322878 	1.8536046
0.0032361809 	-0.028827274 	-0.041322878 	1.8536046
0.0032562814 	-0.026261993 	-0.034703121 	1.8093832
0.0032763819 	-0.033024759 	-0.0023207686 	1.7604601
0.0032964824 	-0.033024759 	-0.0023207686 	1.7604601
0.0033165829 	-0.036476291 	0.072528329 	1.7557605
0.0033366834 	-0.04593673 	0.093916193 	1.7268751
0.0033567839 	-0.04593673 	0.093916193 	1.7268751
0.0033768844 	-0.047755824 	0.049619199 	1.6494729
0.0033969849 	-0.05162059 	0.021910089 	1.6010687
0.0034170854 	-0.05162059 	0.021910089 	1.6010687
0.0034371859 	-0.046662699 	0.012978163 	1.5224013
0.0034572864 	-0.040428419 	0.007172833 	1.5409455
0.0034773869 	-0.048410965 	-0.0095350166 	1.6137189
0.0034974874 	-0.048410965 	-0.0095350166 	1.6137189
0.0035175879 	-0.056403871 	-0.0029223785 	1.6630238
0.0035376884 	-0.058590615 	0.013990661 	1.6986299
0.0035577889 	-0.052885323 	0.020423986 	1.7221116
0.0035778894 	-0.052885323 	0.020423986 	1.7221116
0.0035979899 	-0.049571708 	0.039474678 	1.7283767
0.0036180905 	-0.049830852 	0.063272016 	1.7581267
0.003638191 	-0.051651151 	0.090587356 	1.7883731
0.0036582915 	-0.051651151 	0.090587356 	1.7883731
0.003678392 	-0.057470832 	0.10257475 	1.7652445
0.0036984925 	-0.066569664 	0.074709876 	1.6884943
0.003718593 	-0.064406979 	0.078220369 	1.6116398
0.0037386935 	-0.051409802 	0.10619427 	1.5747377
0.003758794 	-0.050030985 	0.11150534 	1.5656181
0.0037788945 	-0.050030985 	0.11150534 	1.5656181
0.003798995 	-0.044958529 	0.087681139 	1.5550125
0.0038190955 	-0.029698898 	0.024638367 	1.5529045
0.003839196 	-0.020149805 	-0.049386477 	1.5533793
0.0038592965 	-0.007464264 	-0.089008092 	1.5625325
0.003879397 	-0.027609497 	-0.13077984 	1.6374463
0.0038994975 	0.00073169791 	-0.23521247 	1.7481828
0.003919598 	-0.020685162 	-0.31044768 	1.6047794
0.0039396985 	0.0046423084 	-0.0065937925 	1.5589367
0.003959799 	-0.0095043733 	-0.28948628 	1.0776779
0.0039798995 	0.01768362 	-0.23689369 	0.77826198
0.004 	0.01768362 	-0.23689369 	0.77826198
