0 	-0.032350506 	0.011419687 	2.0901105
2.0100503e-05 	-0.032350506 	0.011419687 	2.0901105
4.0201005e-05 	-0.032350506 	0.011419687 	2.0901105
6.0301508e-05 	-0.016532677 	0.026874617 	2.0978213
8.040201e-05 	-0.016532677 	0.026874617 	2.0978213
0.00010050251 	-0.016532677 	0.026874617 	2.0978213
0.00012060302 	0.012993584 	0.017931224 	2.0899385
0.00014070352 	0.012993584 	0.017931224 	2.0899385
0.00016080402 	0.012993584 	0.017931224 	2.0899385
0.00018090452 	0.0086092515 	0.023765258 	2.0943117
0.00020100503 	0.0086092515 	0.023765258 	2.0943117
0.00022110553 	-0.0079491859 	0.017799103 	2.0849917
0.00024120603 	-0.011797427 	0.020756282 	2.0905879
0.00026130653 	-0.011797427 	0.020756282 	2.0905879
0.00028140704 	-0.0013674398 	0.022638912 	2.0646352
0.00030150754 	-0.013548978 	0.014960206 	2.07915
0.00032160804 	-0.013548978 	0.014960206 	2.07915
0.00034170854 	-0.017173556 	0.0045676629 	2.0509056
0.00036180905 	-0.017173556 	0.0045676629 	2.0509056
0.00038190955 	-0.0095186271 	0.020151209 	2.037687
0.00040201005 	-0.028157916 	0.009298068 	2.0247474
0.00042211055 	-0.028157916 	0.009298068 	2.0247474
0.00044221106 	-0.028157916 	0.009298068 	2.0247474
0.00046231156 	-0.035623094 	-0.00032664759 	2.0343235
0.00048241206 	-0.035623094 	-0.00032664759 	2.0343235
0.00050251256 	-0.031468021 	-0.003842231 	2.0418198
0.00052261307 	-0.031468021 	-0.003842231 	2.0418198
0.00054271357 	-0.031468021 	-0.003842231 	2.0418198
0.00056281407 	-0.029196741 	-0.0011375556 	2.0409636
0.00058291457 	-0.029196741 	-0.0011375556 	2.0409636
0.00060301508 	-0.029196741 	-0.0011375556 	2.0409636
0.00062311558 	-0.037914236 	0.014842699 	2.0189054
0.00064321608 	-0.037914236 	0.014842699 	2.0189054
0.00066331658 	-0.037914236 	0.014842699 	2.0189054
0.00068341709 	-0.039281779 	0.007753536 	2.016774
0.00070351759 	-0.039281779 	0.007753536 	2.016774
0.00072361809 	-0.036695332 	0.00031845852 	2.0002628
0.00074371859 	-0.036695332 	0.00031845852 	2.0002628
0.0007638191 	-0.046529559 	0.0019316685 	2.0093885
0.0007839196 	-0.052546089 	0.0004100894 	1.9783529
0.0008040201 	-0.052546089 	0.0004100894 	1.9783529
0.0008241206 	-0.052546089 	0.0004100894 	1.9783529
0.00084422111 	-0.049214607 	-0.006354169 	1.9656186
0.00086432161 	-0.049214607 	-0.006354169 	1.9656186
0.00088442211 	-0.049214607 	-0.006354169 	1.9656186
0.00090452261 	-0.059693059 	-0.009178917 	1.9703173
0.00092462312 	-0.059693059 	-0.009178917 	1.9703173
0.00094472362 	-0.064699136 	-0.032764169 	1.9797904
0.00096482412 	-0.064699136 	-0.032764169 	1.9797904
0.00098492462 	-0.064699136 	-0.032764169 	1.9797904
0.0010050251 	-0.060389905 	-0.039221749 	1.9848333
0.0010251256 	-0.060389905 	-0.039221749 	1.9848333
0.0010452261 	-0.060389905 	-0.039221749 	1.9848333
0.0010653266 	-0.065117953 	-0.018545465 	1.9748344
0.0010854271 	-0.065117953 	-0.018545465 	1.9748344
0.0011055276 	-0.065117953 	-0.018545465 	1.9748344
0.0011256281 	-0.067237393 	-0.0062426769 	1.9987404
0.0011457286 	-0.067237393 	-0.0062426769 	1.9987404
0.0011658291 	-0.067237393 	-0.0062426769 	1.9987404
0.0011859296 	-0.061809447 	0.002522771 	2.0227307
0.0012060302 	-0.061809447 	0.002522771 	2.0227307
0.0012261307 	-0.061809447 	0.002522771 	2.0227307
0.0012462312 	-0.057110701 	0.0092410921 	2.0388217
0.0012663317 	-0.057110701 	0.0092410921 	2.0388217
0.0012864322 	-0.057110701 	0.0092410921 	2.0388217
0.0013065327 	-0.05890797 	0.003187736 	2.0149206
0.0013266332 	-0.05890797 	0.003187736 	2.0149206
0.0013467337 	-0.05890797 	0.003187736 	2.0149206
0.0013668342 	-0.061201466 	0.0030589646 	2.006894
0.0013869347 	-0.061201466 	0.0030589646 	2.006894
0.0014070352 	-0.061201466 	0.0030589646 	2.006894
0.0014271357 	-0.047889139 	-0.0033031193 	1.9934619
0.0014472362 	-0.047889139 	-0.0033031193 	1.9934619
0.0014673367 	-0.047889139 	-0.0033031193 	1.9934619
0.0014874372 	-0.047503185 	-0.011872818 	1.9730712
0.0015075377 	-0.047503185 	-0.011872818 	1.9730712
0.0015276382 	-0.046349113 	-0.023432238 	1.9655297
0.0015477387 	-0.046349113 	-0.023432238 	1.9655297
0.0015678392 	-0.046349113 	-0.023432238 	1.9655297
0.0015879397 	-0.051504258 	-0.028387065 	1.9602446
0.0016080402 	-0.051504258 	-0.028387065 	1.9602446
0.0016281407 	-0.051504258 	-0.028387065 	1.9602446
0.0016482412 	-0.038550901 	-0.034434218 	1.9808733
0.0016683417 	-0.038550901 	-0.034434218 	1.9808733
0.0016884422 	-0.029666877 	-0.032322773 	1.9518021
0.0017085427 	-0.029666877 	-0.032322773 	1.9518021
0.0017286432 	-0.029666877 	-0.032322773 	1.9518021
0.0017487437 	-0.03232183 	-0.033998247 	1.9372315
0.0017688442 	-0.03232183 	-0.033998247 	1.9372315
0.0017889447 	-0.03232183 	-0.033998247 	1.9372315
0.0018090452 	-0.021811455 	-0.031786414 	1.9280787
0.0018291457 	-0.021811455 	-0.031786414 	1.9280787
0.0018492462 	-0.019415771 	-0.027161175 	1.9181579
0.0018693467 	-0.019415771 	-0.027161175 	1.9181579
0.0018894472 	-0.019415771 	-0.027161175 	1.9181579
0.0019095477 	-0.024388083 	-0.015055422 	1.9472444
0.0019296482 	-0.024388083 	-0.015055422 	1.9472444
0.0019497487 	-0.02663165 	-0.0048757947 	1.9953899
0.0019698492 	-0.02663165 	-0.0048757947 	1.9953899
0.0019899497 	-0.034206717 	0.001464369 	2.0278081
0.0020100503 	-0.034206717 	0.001464369 	2.0278081
0.0020301508 	-0.034206717 	0.001464369 	2.0278081
0.0020502513 	-0.036435221 	0.00089615591 	1.9748396
0.0020703518 	-0.036435221 	0.00089615591 	1.9748396
0.0020904523 	-0.035214497 	0.0045791379 	1.8797395
0.0021105528 	-0.035214497 	0.0045791379 	1.8797395
0.0021306533 	-0.035214497 	0.0045791379 	1.8797395
0.0021507538 	-0.037363671 	-0.019976917 	1.8841979
0.0021708543 	-0.037363671 	-0.019976917 	1.8841979
0.0021909548 	-0.041088819 	-0.044265211 	1.9285451
0.0022110553 	-0.041088819 	-0.044265211 	1.9285451
0.0022311558 	-0.038959351 	-0.042579416 	1.9733705
0.0022512563 	-0.038959351 	-0.042579416 	1.9733705
0.0022713568 	-0.052052863 	-0.051130996 	2.0146056
0.0022914573 	-0.052052863 	-0.051130996 	2.0146056
0.0023115578 	-0.052052863 	-0.051130996 	2.0146056
0.0023316583 	-0.030943442 	-0.05090388 	1.9784168
0.0023517588 	-0.030943442 	-0.05090388 	1.9784168
0.0023718593 	-0.023612489 	-0.053875579 	1.9451723
0.0023919598 	-0.023612489 	-0.053875579 	1.9451723
0.0024120603 	-0.020030165 	-0.016722344 	1.9406063
0.0024321608 	-0.020030165 	-0.016722344 	1.9406063
0.0024522613 	-0.016941432 	0.019520037 	1.9339904
0.0024723618 	-0.016941432 	0.019520037 	1.9339904
0.0024924623 	-0.0026948648 	0.016177194 	1.9376582
0.0025125628 	-0.0026948648 	0.016177194 	1.9376582
0.0025326633 	0.0027524217 	0.0029260676 	1.9459195
0.0025527638 	0.0027524217 	0.0029260676 	1.9459195
0.0025728643 	0.01106008 	0.011545778 	1.9421858
0.0025929648 	0.01106008 	0.011545778 	1.9421858
0.0026130653 	0.0055007507 	0.031411613 	1.9404633
0.0026331658 	0.0055007507 	0.031411613 	1.9404633
0.0026532663 	-0.0021677821 	0.045276271 	1.9786762
0.0026733668 	-0.0021677821 	0.045276271 	1.9786762
0.0026934673 	0.0039303438 	0.040064714 	2.0121013
0.0027135678 	0.0039303438 	0.040064714 	2.0121013
0.0027336683 	0.0066494623 	0.0191288 	1.9757402
0.0027537688 	0.0066494623 	0.0191288 	1.9757402
0.0027738693 	0.010863997 	0.0026138709 	1.9415154
0.0027939698 	0.010863997 	0.0026138709 	1.9415154
0.0028140704 	0.010620233 	0.018711849 	1.9156856
0.0028341709 	0.010620233 	0.018711849 	1.9156856
0.0028542714 	0.017748719 	0.045110948 	1.8588357
0.0028743719 	0.0060451334 	0.070078338 	1.8642976
0.0028944724 	0.0060451334 	0.070078338 	1.8642976
0.0029145729 	-0.017418651 	0.069720164 	1.8741546
0.0029346734 	-0.017418651 	0.069720164 	1.8741546
0.0029547739 	-0.027102285 	0.021026474 	1.8701956
0.0029748744 	-0.027102285 	0.021026474 	1.8701956
0.0029949749 	-0.028072065 	-0.0062755922 	1.8702693
0.0030150754 	-0.02310069 	-0.0095839379 	1.8636808
0.0030351759 	-0.02310069 	-0.0095839379 	1.8636808
0.0030552764 	-0.031850191 	-0.0059095934 	1.834872
0.0030753769 	-0.031850191 	-0.0059095934 	1.834872
0.0030954774 	-0.032382909 	0.026532506 	1.8380421
0.0031155779 	-0.055132402 	0.041609836 	1.8436832
0.0031356784 	-0.055132402 	0.041609836 	1.8436832
0.0031557789 	-0.059663148 	0.020609064 	1.8354198
0.0031758794 	-0.059663148 	0.020609064 	1.8354198
0.0031959799 	-0.055693577 	0.029597119 	1.8103091
0.0032160804 	-0.047156629 	0.032113704 	1.7978996
0.0032361809 	-0.047156629 	0.032113704 	1.7978996
0.0032562814 	-0.05490397 	0.031947925 	1.8036048
0.0032763819 	-0.060284188 	-0.0052229282 	1.7466454
0.0032964824 	-0.060284188 	-0.0052229282 	1.7466454
0.0033165829 	-0.061050496 	-0.022004203 	1.7261743
0.0033366834 	-0.068668285 	0.016876848 	1.6769419
0.0033567839 	-0.068668285 	0.016876848 	1.6769419
0.0033768844 	-0.072096104 	0.053738299 	1.6402992
0.0033969849 	-0.072484996 	0.050276701 	1.6699345
0.0034170854 	-0.072484996 	0.050276701 	1.6699345
0.0034371859 	-0.060914601 	0.062608106 	1.7257728
0.0034572864 	-0.048728751 	0.055115787 	1.7683626
0.0034773869 	-0.0040240261 	-0.049438748 	1.8018058
0.0034974874 	-0.0040240261 	-0.049438748 	1.8018058
0.0035175879 	0.024944984 	-0.20649324 	1.6818142
0.0035376884 	0.024238401 	-0.18931502 	1.6217993
0.0035577889 	0.036861673 	-0.091229941 	1.6463011
0.0035778894 	0.036861673 	-0.091229941 	1.6463011
0.0035979899 	0.055980442 	0.0021796231 	1.7456905
0.0036180905 	0.065519607 	-0.012921653 	1.7693403
0.003638191 	0.070762604 	-0.027343358 	1.7592741
0.0036582915 	0.070762604 	-0.027343358 	1.7592741
0.003678392 	0.066541431 	-0.024417906 	1.7489244
0.0036984925 	0.063318737 	-0.0086713307 	1.716391
0.003718593 	0.059507591 	0.038054266 	1.7210725
0.0037386935 	0.046070927 	0.050732961 	1.7214202
0.003758794 	0.047992254 	0.11917448 	1.7780738
0.0037788945 	0.047992254 	0.11917448 	1.7780738
0.003798995 	0.042943043 	0.24565585 	1.8429459
0.0038190955 	0.055101283 	0.32321245 	1.8101262
0.003839196 	0.064698574 	0.24594696 	1.7419924
0.0038592965 	0.062677696 	0.18266257 	1.6834798
0.003879397 	0.047214771 	0.30174183 	1.6840561
0.0038994975 	0.038819716 	0.4647275 	1.5845765
0.003919598 	0.010935442 	0.30433546 	1.3383853
0.0039396985 	0.032749576 	0.56775321 	1.2491055
0.003959799 	0.02553079 	0.088404084 	1.184782
0.0039798995 	0.034866986 	0.12445932 	0.8349457
0.004 	0.034866986 	0.12445932 	0.8349457
