0 	0.02598694 	-0.026961543 	2.0323679
2.0100503e-05 	0.02598694 	-0.026961543 	2.0323679
4.0201005e-05 	0.02598694 	-0.026961543 	2.0323679
6.0301508e-05 	0.026791447 	-0.025240655 	2.0138224
8.040201e-05 	0.026791447 	-0.025240655 	2.0138224
0.00010050251 	0.026791447 	-0.025240655 	2.0138224
0.00012060302 	0.022287174 	-0.024960755 	2.0178394
0.00014070352 	0.022287174 	-0.024960755 	2.0178394
0.00016080402 	0.022287174 	-0.024960755 	2.0178394
0.00018090452 	0.022406401 	-0.025294895 	2.0227579
0.00020100503 	0.022406401 	-0.025294895 	2.0227579
0.00022110553 	0.022406401 	-0.025294895 	2.0227579
0.00024120603 	0.023643725 	-0.026469098 	2.0272517
0.00026130653 	0.023643725 	-0.026469098 	2.0272517
0.00028140704 	0.028965924 	-0.033822336 	2.0470006
0.00030150754 	0.028965924 	-0.033822336 	2.0470006
0.00032160804 	0.028965924 	-0.033822336 	2.0470006
0.00034170854 	0.03550528 	-0.036230218 	2.0358484
0.00036180905 	0.03550528 	-0.036230218 	2.0358484
0.00038190955 	0.03550528 	-0.036230218 	2.0358484
0.00040201005 	0.041510872 	-0.041294432 	2.0356965
0.00042211055 	0.041510872 	-0.041294432 	2.0356965
0.00044221106 	0.041510872 	-0.041294432 	2.0356965
0.00046231156 	0.045882573 	-0.053300644 	2.0406872
0.00048241206 	0.045882573 	-0.053300644 	2.0406872
0.00050251256 	0.039535871 	-0.053841224 	2.0427738
0.00052261307 	0.039535871 	-0.053841224 	2.0427738
0.00054271357 	0.039535871 	-0.053841224 	2.0427738
0.00056281407 	0.039995172 	-0.048819604 	2.0508511
0.00058291457 	0.039995172 	-0.048819604 	2.0508511
0.00060301508 	0.039995172 	-0.048819604 	2.0508511
0.00062311558 	0.032525209 	-0.041556118 	2.0758496
0.00064321608 	0.032525209 	-0.041556118 	2.0758496
0.00066331658 	0.032525209 	-0.041556118 	2.0758496
0.00068341709 	0.037979768 	-0.035869378 	2.0814756
0.00070351759 	0.037979768 	-0.035869378 	2.0814756
0.00072361809 	0.028535126 	-0.020647679 	2.1063804
0.00074371859 	0.028535126 	-0.020647679 	2.1063804
0.0007638191 	0.028535126 	-0.020647679 	2.1063804
0.0007839196 	0.026712703 	0.0058834777 	2.0130725
0.0008040201 	0.026712703 	0.0058834777 	2.0130725
0.0008241206 	0.026712703 	0.0058834777 	2.0130725
0.00084422111 	0.019341083 	0.0089989045 	2.0037443
0.00086432161 	0.019341083 	0.0089989045 	2.0037443
0.00088442211 	0.019341083 	0.0089989045 	2.0037443
0.00090452261 	0.014128907 	0.001399635 	1.9983578
0.00092462312 	0.014128907 	0.001399635 	1.9983578
0.00094472362 	0.0070362485 	-0.0060200844 	2.0242628
0.00096482412 	0.0070362485 	-0.0060200844 	2.0242628
0.00098492462 	0.0070362485 	-0.0060200844 	2.0242628
0.0010050251 	0.0085029599 	-0.025363133 	2.0000998
0.0010251256 	0.0085029599 	-0.025363133 	2.0000998
0.0010452261 	0.0085029599 	-0.025363133 	2.0000998
0.0010653266 	0.019894384 	-0.032165545 	2.0076856
0.0010854271 	0.013009705 	-0.042745807 	1.9463095
0.0011055276 	0.013009705 	-0.042745807 	1.9463095
0.0011256281 	0.026344776 	-0.018925241 	2.0418069
0.0011457286 	0.026344776 	-0.018925241 	2.0418069
0.0011658291 	0.027064377 	-0.021650758 	2.0617591
0.0011859296 	0.020815246 	-0.012679787 	2.0637949
0.0012060302 	0.020815246 	-0.012679787 	2.0637949
0.0012261307 	0.020815246 	-0.012679787 	2.0637949
0.0012462312 	0.023159733 	-0.02127018 	2.07773
0.0012663317 	0.023159733 	-0.02127018 	2.07773
0.0012864322 	0.023159733 	-0.02127018 	2.07773
0.0013065327 	0.010165446 	-0.028690621 	2.0883237
0.0013266332 	0.010165446 	-0.028690621 	2.0883237
0.0013467337 	0.010165446 	-0.028690621 	2.0883237
0.0013668342 	0.024816641 	-0.034471574 	2.086326
0.0013869347 	0.024816641 	-0.034471574 	2.086326
0.0014070352 	0.024816641 	-0.034471574 	2.086326
0.0014271357 	0.026417272 	-0.053365463 	2.089843
0.0014472362 	0.026417272 	-0.053365463 	2.089843
0.0014673367 	0.026417272 	-0.053365463 	2.089843
0.0014874372 	0.052537323 	-0.049008899 	2.0831637
0.0015075377 	0.052537323 	-0.049008899 	2.0831637
0.0015276382 	0.038935153 	-0.041886757 	2.1156512
0.0015477387 	0.038935153 	-0.041886757 	2.1156512
0.0015678392 	0.038935153 	-0.041886757 	2.1156512
0.0015879397 	0.031296453 	-0.032930086 	2.0949635
0.0016080402 	0.031296453 	-0.032930086 	2.0949635
0.0016281407 	0.031296453 	-0.032930086 	2.0949635
0.0016482412 	0.061236562 	-0.03827629 	2.0170249
0.0016683417 	0.061236562 	-0.03827629 	2.0170249
0.0016884422 	0.031422748 	-0.052365471 	2.0354688
0.0017085427 	0.031422748 	-0.052365471 	2.0354688
0.0017286432 	0.031422748 	-0.052365471 	2.0354688
0.0017487437 	0.01988676 	-0.025964767 	2.0213693
0.0017688442 	0.01988676 	-0.025964767 	2.0213693
0.0017889447 	0.01988676 	-0.025964767 	2.0213693
0.0018090452 	0.027578865 	-0.015870873 	2.0242995
0.0018291457 	0.027578865 	-0.015870873 	2.0242995
0.0018492462 	0.013305486 	0.0083492568 	2.034329
0.0018693467 	0.013305486 	0.0083492568 	2.034329
0.0018894472 	0.013305486 	0.0083492568 	2.034329
0.0019095477 	0.0037449602 	0.015638783 	1.9391671
0.0019296482 	0.0037449602 	0.015638783 	1.9391671
0.0019497487 	-0.026401994 	-0.0060783535 	1.8885494
0.0019698492 	-0.026401994 	-0.0060783535 	1.8885494
0.0019899497 	-0.042822547 	0.065286999 	1.8377767
0.0020100503 	-0.042822547 	0.065286999 	1.8377767
0.0020301508 	-0.042822547 	0.065286999 	1.8377767
0.0020502513 	-0.058910975 	0.085431243 	1.9434012
0.0020703518 	-0.058910975 	0.085431243 	1.9434012
0.0020904523 	-0.047528351 	0.080381536 	1.9305647
0.0021105528 	-0.047528351 	0.080381536 	1.9305647
0.0021306533 	-0.047528351 	0.080381536 	1.9305647
0.0021507538 	-0.087715886 	0.038024254 	1.9276678
0.0021708543 	-0.087715886 	0.038024254 	1.9276678
0.0021909548 	-0.069154012 	0.043913229 	1.9285809
0.0022110553 	-0.069154012 	0.043913229 	1.9285809
0.0022311558 	-0.073677066 	0.079185766 	1.8931019
0.0022512563 	-0.073677066 	0.079185766 	1.8931019
0.0022713568 	-0.097199099 	0.058842696 	1.8843165
0.0022914573 	-0.097199099 	0.058842696 	1.8843165
0.0023115578 	-0.097199099 	0.058842696 	1.8843165
0.0023316583 	-0.10414511 	0.061934373 	1.8957544
0.0023517588 	-0.10414511 	0.061934373 	1.8957544
0.0023718593 	-0.092959769 	0.066541831 	1.8904211
0.0023919598 	-0.092959769 	0.066541831 	1.8904211
0.0024120603 	-0.091211787 	0.064324102 	1.8872457
0.0024321608 	-0.091211787 	0.064324102 	1.8872457
0.0024522613 	-0.079806078 	0.020994646 	1.9507811
0.0024723618 	-0.079806078 	0.020994646 	1.9507811
0.0024924623 	-0.073962559 	0.011890411 	1.9654452
0.0025125628 	-0.073962559 	0.011890411 	1.9654452
0.0025326633 	-0.096365834 	0.035805082 	1.8397898
0.0025527638 	-0.096365834 	0.035805082 	1.8397898
0.0025728643 	-0.062125582 	0.042272142 	1.8330755
0.0025929648 	-0.062125582 	0.042272142 	1.8330755
0.0026130653 	-0.055733427 	0.078369816 	1.8225658
0.0026331658 	-0.055733427 	0.078369816 	1.8225658
0.0026532663 	-0.034220508 	0.091740533 	1.8672756
0.0026733668 	-0.034220508 	0.091740533 	1.8672756
0.0026934673 	-0.01828616 	0.12737725 	1.707846
0.0027135678 	-0.01828616 	0.12737725 	1.707846
0.0027336683 	0.018251902 	0.13460425 	1.6768186
0.0027537688 	0.018251902 	0.13460425 	1.6768186
0.0027738693 	0.035094459 	0.11808289 	1.67794
0.0027939698 	0.035094459 	0.11808289 	1.67794
0.0028140704 	0.072191793 	0.066199518 	1.6831057
0.0028341709 	0.072191793 	0.066199518 	1.6831057
0.0028542714 	0.065348021 	0.065829312 	1.7161257
0.0028743719 	0.071840781 	0.070725037 	1.7628922
0.0028944724 	0.071840781 	0.070725037 	1.7628922
0.0029145729 	0.064541582 	0.094170403 	1.789807
0.0029346734 	0.064541582 	0.094170403 	1.789807
0.0029547739 	0.062335858 	0.10781425 	1.8365172
0.0029748744 	0.062335858 	0.10781425 	1.8365172
0.0029949749 	0.061105607 	0.094694359 	1.8916819
0.0030150754 	0.072272653 	0.10734101 	1.9205379
0.0030351759 	0.072272653 	0.10734101 	1.9205379
0.0030552764 	0.064965563 	0.096409235 	1.8758991
0.0030753769 	0.064965563 	0.096409235 	1.8758991
0.0030954774 	0.078642547 	0.057432704 	1.90844
0.0031155779 	0.069120363 	0.037014647 	1.9548735
0.0031356784 	0.069120363 	0.037014647 	1.9548735
0.0031557789 	0.073641601 	0.044515338 	1.9549953
0.0031758794 	0.073641601 	0.044515338 	1.9549953
0.0031959799 	0.085590147 	0.019887896 	1.9106272
0.0032160804 	0.090557749 	-0.012810446 	1.8877178
0.0032361809 	0.090557749 	-0.012810446 	1.8877178
0.0032562814 	0.098070159 	-0.041005778 	1.9020037
0.0032763819 	0.10571933 	-0.082237856 	1.8790972
0.0032964824 	0.10571933 	-0.082237856 	1.8790972
0.0033165829 	0.11638501 	-0.1462868 	1.7837091
0.0033366834 	0.1184608 	-0.14246997 	1.7637767
0.0033567839 	0.1184608 	-0.14246997 	1.7637767
0.0033768844 	0.097328918 	-0.027290505 	1.831009
0.0033969849 	0.080122848 	0.040114868 	1.8120197
0.0034170854 	0.080122848 	0.040114868 	1.8120197
0.0034371859 	0.076357285 	0.0058392149 	1.7101112
0.0034572864 	0.076598095 	-0.038652221 	1.6361876
0.0034773869 	0.077201252 	-0.032276829 	1.5868495
0.0034974874 	0.077201252 	-0.032276829 	1.5868495
0.0035175879 	0.071027894 	0.0068325944 	1.5772674
0.0035376884 	0.063756046 	-0.0020640487 	1.6164797
0.0035577889 	0.063689939 	-0.038903512 	1.6561699
0.0035778894 	0.063689939 	-0.038903512 	1.6561699
0.0035979899 	0.073011415 	-0.044700776 	1.6599187
0.0036180905 	0.074760336 	-0.035704196 	1.6445337
0.003638191 	0.068920867 	-0.033777383 	1.6523489
0.0036582915 	0.068920867 	-0.033777383 	1.6523489
0.003678392 	0.065886495 	-0.022172888 	1.6246021
0.0036984925 	0.062998794 	0.025227393 	1.5487592
0.003718593 	0.055518255 	-0.0038379126 	1.4675694
0.0037386935 	0.035982556 	-0.064771161 	1.4493783
0.003758794 	0.029923526 	-0.11516498 	1.484327
0.0037788945 	0.029923526 	-0.11516498 	1.484327
0.003798995 	0.033207072 	-0.21923981 	1.5318399
0.0038190955 	0.024382806 	-0.23928375 	1.5821606
0.003839196 	0.029978053 	-0.25661401 	1.6138131
0.0038592965 	0.01929897 	-0.30029067 	1.6079608
0.003879397 	0.025317517 	-0.26351945 	1.5119485
0.0038994975 	0.012667757 	-0.39988449 	1.4139427
0.003919598 	0.0055547471 	-0.46680207 	1.5129752
0.0039396985 	0.0094415976 	-0.19523735 	1.3184574
0.003959799 	-0.0032014001 	0.34699788 	0.54930347
0.0039798995 	-0.030645249 	-0.036856028 	0.42003071
0.004 	-0.030645249 	-0.036856028 	0.42003071
