0 	0.00032709416 	0.040891069 	1.9492289
2.0100503e-05 	0.00032709416 	0.040891069 	1.9492289
4.0201005e-05 	0.00032709416 	0.040891069 	1.9492289
6.0301508e-05 	0.024163576 	0.056476711 	1.9611903
8.040201e-05 	0.024163576 	0.056476711 	1.9611903
0.00010050251 	0.024163576 	0.056476711 	1.9611903
0.00012060302 	0.026613905 	0.038247395 	1.9919579
0.00014070352 	0.022977762 	0.024230777 	2.0040392
0.00016080402 	0.022977762 	0.024230777 	2.0040392
0.00018090452 	0.029367132 	0.01939948 	2.0196741
0.00020100503 	0.027388809 	0.035889938 	2.0147032
0.00022110553 	0.027388809 	0.035889938 	2.0147032
0.00024120603 	0.037007944 	0.03169167 	2.0305796
0.00026130653 	0.039784655 	0.0095038207 	2.0230448
0.00028140704 	0.046863087 	-0.0037744472 	2.0237213
0.00030150754 	0.046863087 	-0.0037744472 	2.0237213
0.00032160804 	0.046863087 	-0.0037744472 	2.0237213
0.00034170854 	0.05149113 	-0.0051112935 	2.0300931
0.00036180905 	0.05149113 	-0.0051112935 	2.0300931
0.00038190955 	0.05149113 	-0.0051112935 	2.0300931
0.00040201005 	0.048340645 	-0.021411062 	2.0321842
0.00042211055 	0.048340645 	-0.021411062 	2.0321842
0.00044221106 	0.048340645 	-0.021411062 	2.0321842
0.00046231156 	0.044302545 	-0.030629189 	2.0444411
0.00048241206 	0.044302545 	-0.030629189 	2.0444411
0.00050251256 	0.034804094 	-0.031085634 	2.0468226
0.00052261307 	0.034804094 	-0.031085634 	2.0468226
0.00054271357 	0.034804094 	-0.031085634 	2.0468226
0.00056281407 	0.025559051 	-0.037838454 	2.0435301
0.00058291457 	0.032901982 	-0.032877322 	2.0516036
0.00060301508 	0.032901982 	-0.032877322 	2.0516036
0.00062311558 	0.020299036 	-0.036010783 	2.0463694
0.00064321608 	0.020299036 	-0.036010783 	2.0463694
0.00066331658 	0.020299036 	-0.036010783 	2.0463694
0.00068341709 	0.01774448 	-0.035691612 	2.0433262
0.00070351759 	0.018064994 	-0.037808918 	2.0274906
0.00072361809 	0.0032549998 	-0.039816534 	2.0471602
0.00074371859 	0.0032549998 	-0.039816534 	2.0471602
0.0007638191 	0.0032549998 	-0.039816534 	2.0471602
0.0007839196 	0.0080517086 	-0.036849189 	2.0364205
0.0008040201 	0.0080517086 	-0.036849189 	2.0364205
0.0008241206 	0.0080517086 	-0.036849189 	2.0364205
0.00084422111 	0.0051157167 	-0.034593953 	2.0337782
0.00086432161 	0.0051157167 	-0.034593953 	2.0337782
0.00088442211 	0.0051157167 	-0.034593953 	2.0337782
0.00090452261 	0.016373252 	-0.016522465 	2.0370204
0.00092462312 	0.016373252 	-0.016522465 	2.0370204
0.00094472362 	0.027836222 	-0.0034272019 	2.0281914
0.00096482412 	0.030845108 	-0.017996876 	2.035488
0.00098492462 	0.030845108 	-0.017996876 	2.035488
0.0010050251 	0.034626256 	-0.011483178 	2.0288637
0.0010251256 	0.032418532 	-0.00039794219 	2.048621
0.0010452261 	0.032418532 	-0.00039794219 	2.048621
0.0010653266 	0.05047365 	0.0059277392 	2.0613408
0.0010854271 	0.05047365 	0.0059277392 	2.0613408
0.0011055276 	0.05047365 	0.0059277392 	2.0613408
0.0011256281 	0.043951887 	-0.012021728 	2.0440096
0.0011457286 	0.04752264 	0.0092906701 	2.0543616
0.0011658291 	0.04752264 	0.0092906701 	2.0543616
0.0011859296 	0.045170646 	0.010053281 	2.0562486
0.0012060302 	0.045170646 	0.010053281 	2.0562486
0.0012261307 	0.045170646 	0.010053281 	2.0562486
0.0012462312 	0.028922677 	0.010749884 	2.0955132
0.0012663317 	0.028922677 	0.010749884 	2.0955132
0.0012864322 	0.028922677 	0.010749884 	2.0955132
0.0013065327 	0.0154317 	0.0051193301 	2.065758
0.0013266332 	0.0154317 	0.0051193301 	2.065758
0.0013467337 	0.0154317 	0.0051193301 	2.065758
0.0013668342 	0.0036395721 	-0.011101087 	2.0262675
0.0013869347 	0.0036395721 	-0.011101087 	2.0262675
0.0014070352 	0.0036395721 	-0.011101087 	2.0262675
0.0014271357 	-0.012977481 	-0.023149197 	1.9645154
0.0014472362 	-0.012977481 	-0.023149197 	1.9645154
0.0014673367 	-0.012977481 	-0.023149197 	1.9645154
0.0014874372 	-0.020382426 	-0.0052969066 	1.9561384
0.0015075377 	-0.020382426 	-0.0052969066 	1.9561384
0.0015276382 	-0.0383633 	0.010718538 	1.9784499
0.0015477387 	-0.0383633 	0.010718538 	1.9784499
0.0015678392 	-0.0383633 	0.010718538 	1.9784499
0.0015879397 	-0.034988478 	0.017887289 	2.0156527
0.0016080402 	-0.034988478 	0.017887289 	2.0156527
0.0016281407 	-0.034988478 	0.017887289 	2.0156527
0.0016482412 	-0.02640659 	0.017426904 	2.0026508
0.0016683417 	-0.02640659 	0.017426904 	2.0026508
0.0016884422 	-0.0039179163 	0.017033184 	1.9577303
0.0017085427 	-0.0039179163 	0.017033184 	1.9577303
0.0017286432 	-0.0039179163 	0.017033184 	1.9577303
0.0017487437 	-0.0053019573 	-0.0080331855 	1.9515272
0.0017688442 	-0.0053019573 	-0.0080331855 	1.9515272
0.0017889447 	-0.0053019573 	-0.0080331855 	1.9515272
0.0018090452 	0.0034625453 	-0.01517977 	1.9461589
0.0018291457 	0.0034625453 	-0.01517977 	1.9461589
0.0018492462 	-0.013997218 	-0.009219493 	1.946472
0.0018693467 	-0.013997218 	-0.009219493 	1.946472
0.0018894472 	-0.013997218 	-0.009219493 	1.946472
0.0019095477 	-0.021207619 	-0.0083000064 	1.9825979
0.0019296482 	-0.021207619 	-0.0083000064 	1.9825979
0.0019497487 	-0.049635024 	-0.0078131263 	1.9669127
0.0019698492 	-0.049635024 	-0.0078131263 	1.9669127
0.0019899497 	-0.056839783 	-0.033486954 	1.9145955
0.0020100503 	-0.056839783 	-0.033486954 	1.9145955
0.0020301508 	-0.056839783 	-0.033486954 	1.9145955
0.0020502513 	-0.051754224 	-0.045271699 	1.8896129
0.0020703518 	-0.051754224 	-0.045271699 	1.8896129
0.0020904523 	-0.044046077 	-0.066789586 	1.8672874
0.0021105528 	-0.044046077 	-0.066789586 	1.8672874
0.0021306533 	-0.044046077 	-0.066789586 	1.8672874
0.0021507538 	-0.045905546 	-0.076189018 	1.9204633
0.0021708543 	-0.045905546 	-0.076189018 	1.9204633
0.0021909548 	-0.021981048 	-0.069583326 	1.9112981
0.0022110553 	-0.021981048 	-0.069583326 	1.9112981
0.0022311558 	-0.0026771945 	-0.10706097 	1.9284094
0.0022512563 	-0.0026771945 	-0.10706097 	1.9284094
0.0022713568 	-0.015202714 	-0.098979185 	1.974987
0.0022914573 	-0.015202714 	-0.098979185 	1.974987
0.0023115578 	-0.015202714 	-0.098979185 	1.974987
0.0023316583 	-0.024581326 	-0.064260439 	2.0285681
0.0023517588 	-0.024581326 	-0.064260439 	2.0285681
0.0023718593 	-0.024129891 	-0.03453846 	1.9602607
0.0023919598 	-0.024129891 	-0.03453846 	1.9602607
0.0024120603 	-0.033973813 	-0.0036604586 	1.8980664
0.0024321608 	-0.033973813 	-0.0036604586 	1.8980664
0.0024522613 	-0.037600934 	-0.014062872 	1.890412
0.0024723618 	-0.037600934 	-0.014062872 	1.890412
0.0024924623 	-0.036664749 	-0.02041183 	1.8817935
0.0025125628 	-0.036664749 	-0.02041183 	1.8817935
0.0025326633 	-0.029561157 	-0.0099910202 	1.8733968
0.0025527638 	-0.029561157 	-0.0099910202 	1.8733968
0.0025728643 	-0.032485249 	-0.022875598 	1.9476248
0.0025929648 	-0.032485249 	-0.022875598 	1.9476248
0.0026130653 	-0.024436167 	-0.025067577 	1.9467356
0.0026331658 	-0.024436167 	-0.025067577 	1.9467356
0.0026532663 	0.0012993502 	-0.010151849 	1.9019527
0.0026733668 	0.0012993502 	-0.010151849 	1.9019527
0.0026934673 	0.020538156 	9.4058329e-05 	1.9328555
0.0027135678 	0.020538156 	9.4058329e-05 	1.9328555
0.0027336683 	0.035091743 	0.0053914631 	1.9418201
0.0027537688 	0.035091743 	0.0053914631 	1.9418201
0.0027738693 	0.060688586 	0.0055522711 	1.9064727
0.0027939698 	0.060688586 	0.0055522711 	1.9064727
0.0028140704 	0.071062371 	0.012403054 	1.8870656
0.0028341709 	0.071062371 	0.012403054 	1.8870656
0.0028542714 	0.079672565 	-0.0093624419 	1.9048061
0.0028743719 	0.075042428 	-0.034361913 	1.949631
0.0028944724 	0.075042428 	-0.034361913 	1.949631
0.0029145729 	0.057897599 	0.0055535184 	1.9535684
0.0029346734 	0.057897599 	0.0055535184 	1.9535684
0.0029547739 	0.045284166 	0.062105888 	1.9377232
0.0029748744 	0.045284166 	0.062105888 	1.9377232
0.0029949749 	0.032369733 	0.070620955 	1.944689
0.0030150754 	0.025518956 	0.062212427 	1.9215024
0.0030351759 	0.025518956 	0.062212427 	1.9215024
0.0030552764 	0.027688649 	0.053629802 	1.8937549
0.0030753769 	0.027688649 	0.053629802 	1.8937549
0.0030954774 	0.029850262 	0.049454659 	1.8870224
0.0031155779 	0.029829183 	0.03552291 	1.8831247
0.0031356784 	0.029829183 	0.03552291 	1.8831247
0.0031557789 	0.025526697 	0.023529036 	1.8882606
0.0031758794 	0.025526697 	0.023529036 	1.8882606
0.0031959799 	0.018435029 	0.03749512 	1.8786741
0.0032160804 	0.019367693 	0.057298226 	1.8436002
0.0032361809 	0.019367693 	0.057298226 	1.8436002
0.0032562814 	0.02129719 	0.06472073 	1.7946549
0.0032763819 	0.018577696 	0.060899241 	1.7606357
0.0032964824 	0.018577696 	0.060899241 	1.7606357
0.0033165829 	0.011083233 	0.074541826 	1.7661315
0.0033366834 	0.0015142725 	0.079503373 	1.7825303
0.0033567839 	0.0015142725 	0.079503373 	1.7825303
0.0033768844 	0.0021429851 	0.081515887 	1.7609869
0.0033969849 	0.0023342246 	0.082938443 	1.7407296
0.0034170854 	0.0023342246 	0.082938443 	1.7407296
0.0034371859 	0.0078212004 	0.089737673 	1.7644409
0.0034572864 	0.016842602 	0.072067672 	1.7648133
0.0034773869 	0.019616288 	-0.012716826 	1.7378574
0.0034974874 	0.019616288 	-0.012716826 	1.7378574
0.0035175879 	0.024585191 	-0.048590803 	1.7297627
0.0035376884 	0.02758033 	-0.037401347 	1.7398821
0.0035577889 	0.023662939 	-0.014929116 	1.7289255
0.0035778894 	0.023662939 	-0.014929116 	1.7289255
0.0035979899 	0.028646908 	-0.0037030467 	1.6993323
0.0036180905 	0.032438142 	0.017365001 	1.6781827
0.003638191 	0.034919157 	0.04989745 	1.6632697
0.0036582915 	0.034919157 	0.04989745 	1.6632697
0.003678392 	0.03522003 	0.085072725 	1.6401359
0.0036984925 	0.032460149 	0.13108652 	1.5827344
0.003718593 	0.024038684 	0.1544184 	1.5349319
0.0037386935 	0.013501302 	0.16902972 	1.5239999
0.003758794 	0.0036711829 	0.16380687 	1.5399437
0.0037788945 	0.0036711829 	0.16380687 	1.5399437
0.003798995 	-0.012467735 	0.090385543 	1.5091141
0.0038190955 	-0.026265947 	0.11178988 	1.4325026
0.003839196 	-0.036331663 	0.12082792 	1.376224
0.0038592965 	-0.039390515 	0.0253015 	1.3516822
0.003879397 	-0.050533199 	0.015540437 	1.4314348
0.0038994975 	-0.080304932 	0.04106854 	1.5298775
0.003919598 	-0.083122356 	0.054644601 	1.4063799
0.0039396985 	-0.01885999 	0.041490077 	1.4776546
0.003959799 	-0.022908734 	0.034033508 	1.5511178
0.0039798995 	0.022611444 	0.15071606 	0.85968404
0.004 	0.022611444 	0.15071606 	0.85968404
