0 	0.00032709416 	0.040891069 	1.9492289
2.0100503e-05 	0.00032709416 	0.040891069 	1.9492289
4.0201005e-05 	0.00032709416 	0.040891069 	1.9492289
6.0301508e-05 	-0.036895244 	0.045726597 	1.9400299
8.040201e-05 	-0.036895244 	0.045726597 	1.9400299
0.00010050251 	-0.036895244 	0.045726597 	1.9400299
0.00012060302 	-0.069264301 	0.050538864 	1.9266425
0.00014070352 	-0.069264301 	0.050538864 	1.9266425
0.00016080402 	-0.069264301 	0.050538864 	1.9266425
0.00018090452 	-0.062333939 	0.069317651 	1.9432315
0.00020100503 	-0.062333939 	0.069317651 	1.9432315
0.00022110553 	-0.062333939 	0.069317651 	1.9432315
0.00024120603 	-0.071564048 	0.055977996 	1.9447739
0.00026130653 	-0.071564048 	0.055977996 	1.9447739
0.00028140704 	-0.072511988 	0.05570017 	1.9779297
0.00030150754 	-0.055726414 	0.066932108 	1.9684213
0.00032160804 	-0.055726414 	0.066932108 	1.9684213
0.00034170854 	-0.04518828 	0.050489462 	1.9817036
0.00036180905 	-0.04518828 	0.050489462 	1.9817036
0.00038190955 	-0.04518828 	0.050489462 	1.9817036
0.00040201005 	-0.035598911 	0.025764628 	1.9777161
0.00042211055 	-0.035598911 	0.025764628 	1.9777161
0.00044221106 	-0.035598911 	0.025764628 	1.9777161
0.00046231156 	-0.027851423 	0.0028870328 	1.9778763
0.00048241206 	-0.045812859 	0.0092832677 	2.0031832
0.00050251256 	-0.01545638 	-0.012026342 	1.9871467
0.00052261307 	-0.01545638 	-0.012026342 	1.9871467
0.00054271357 	-0.01545638 	-0.012026342 	1.9871467
0.00056281407 	0.0065374636 	-0.028101788 	1.9995345
0.00058291457 	-0.008867302 	-0.013045054 	1.9858315
0.00060301508 	-0.008867302 	-0.013045054 	1.9858315
0.00062311558 	0.003522872 	-0.016134989 	1.9883657
0.00064321608 	0.003522872 	-0.016134989 	1.9883657
0.00066331658 	0.003522872 	-0.016134989 	1.9883657
0.00068341709 	0.027750496 	-0.017141781 	2.0167088
0.00070351759 	0.027750496 	-0.017141781 	2.0167088
0.00072361809 	0.035120313 	-0.0030549841 	2.0046863
0.00074371859 	0.035120313 	-0.0030549841 	2.0046863
0.0007638191 	0.035120313 	-0.0030549841 	2.0046863
0.0007839196 	0.029337716 	-0.0018022421 	2.0279391
0.0008040201 	0.029337716 	-0.0018022421 	2.0279391
0.0008241206 	0.029337716 	-0.0018022421 	2.0279391
0.00084422111 	0.032451185 	-0.01074233 	2.0153976
0.00086432161 	0.032451185 	-0.01074233 	2.0153976
0.00088442211 	0.032451185 	-0.01074233 	2.0153976
0.00090452261 	0.032701002 	-0.0014740441 	1.9968186
0.00092462312 	0.032701002 	-0.0014740441 	1.9968186
0.00094472362 	0.035266661 	0.011133719 	2.0092458
0.00096482412 	0.014441126 	0.0041149877 	2.0445939
0.00098492462 	0.014441126 	0.0041149877 	2.0445939
0.0010050251 	0.0024615642 	-0.019196061 	2.029365
0.0010251256 	0.0024615642 	-0.019196061 	2.029365
0.0010452261 	0.0024615642 	-0.019196061 	2.029365
0.0010653266 	-0.0032747396 	-0.033433651 	2.0082992
0.0010854271 	-0.0032747396 	-0.033433651 	2.0082992
0.0011055276 	-0.0032747396 	-0.033433651 	2.0082992
0.0011256281 	0.0058777635 	-0.022914736 	1.9857193
0.0011457286 	0.0058777635 	-0.022914736 	1.9857193
0.0011658291 	0.0005651952 	-0.033559459 	1.9911998
0.0011859296 	-0.011179815 	-0.021784521 	1.9890425
0.0012060302 	-0.011179815 	-0.021784521 	1.9890425
0.0012261307 	-0.011179815 	-0.021784521 	1.9890425
0.0012462312 	-0.0032102978 	-0.0071363616 	1.9640914
0.0012663317 	0.00083516828 	-0.0073671625 	1.9754671
0.0012864322 	-0.0032102978 	-0.0071363616 	1.9640914
0.0013065327 	-0.0029024929 	-0.0063421297 	1.9670217
0.0013266332 	-0.0029024929 	-0.0063421297 	1.9670217
0.0013467337 	-0.0029024929 	-0.0063421297 	1.9670217
0.0013668342 	0.0064978565 	-0.012252187 	1.9485257
0.0013869347 	0.0064978565 	-0.012252187 	1.9485257
0.0014070352 	0.0064978565 	-0.012252187 	1.9485257
0.0014271357 	0.0026625856 	0.0036746222 	1.9439879
0.0014472362 	0.0026625856 	0.0036746222 	1.9439879
0.0014673367 	0.0026625856 	0.0036746222 	1.9439879
0.0014874372 	0.0061952671 	0.043020675 	1.9397246
0.0015075377 	0.0061952671 	0.043020675 	1.9397246
0.0015276382 	0.0072935218 	0.054705213 	1.9218752
0.0015477387 	0.0072935218 	0.054705213 	1.9218752
0.0015678392 	0.0072935218 	0.054705213 	1.9218752
0.0015879397 	0.037678195 	0.072236483 	1.8962617
0.0016080402 	0.037678195 	0.072236483 	1.8962617
0.0016281407 	0.037678195 	0.072236483 	1.8962617
0.0016482412 	0.027075626 	0.11023694 	1.8997508
0.0016683417 	0.027075626 	0.11023694 	1.8997508
0.0016884422 	0.01704217 	0.12024718 	1.8875542
0.0017085427 	0.01704217 	0.12024718 	1.8875542
0.0017286432 	0.01704217 	0.12024718 	1.8875542
0.0017487437 	0.025521613 	0.1213695 	1.8923772
0.0017688442 	0.025521613 	0.1213695 	1.8923772
0.0017889447 	0.025521613 	0.1213695 	1.8923772
0.0018090452 	0.016218351 	0.12790618 	1.8948386
0.0018291457 	0.016218351 	0.12790618 	1.8948386
0.0018492462 	0.010639999 	0.12563216 	1.8827947
0.0018693467 	0.010639999 	0.12563216 	1.8827947
0.0018894472 	0.010639999 	0.12563216 	1.8827947
0.0019095477 	0.0066619245 	0.1029527 	1.8870904
0.0019296482 	0.0066619245 	0.1029527 	1.8870904
0.0019497487 	-0.0021446623 	0.095573205 	1.8942852
0.0019698492 	-0.0021446623 	0.095573205 	1.8942852
0.0019899497 	-0.033043449 	0.061182087 	1.9017653
0.0020100503 	-0.033043449 	0.061182087 	1.9017653
0.0020301508 	-0.033043449 	0.061182087 	1.9017653
0.0020502513 	-0.042768111 	0.020849691 	1.8638068
0.0020703518 	-0.042768111 	0.020849691 	1.8638068
0.0020904523 	-0.055746817 	0.0039609376 	1.8319368
0.0021105528 	-0.055746817 	0.0039609376 	1.8319368
0.0021306533 	-0.055746817 	0.0039609376 	1.8319368
0.0021507538 	-0.057526123 	0.016662932 	1.8207318
0.0021708543 	-0.057526123 	0.016662932 	1.8207318
0.0021909548 	-0.066616435 	0.013827708 	1.8053958
0.0022110553 	-0.066616435 	0.013827708 	1.8053958
0.0022311558 	-0.084072215 	-0.014103295 	1.7697764
0.0022512563 	-0.084072215 	-0.014103295 	1.7697764
0.0022713568 	-0.085175444 	-0.019490742 	1.7456543
0.0022914573 	-0.085175444 	-0.019490742 	1.7456543
0.0023115578 	-0.085175444 	-0.019490742 	1.7456543
0.0023316583 	-0.072921257 	0.028630435 	1.8052384
0.0023517588 	-0.072921257 	0.028630435 	1.8052384
0.0023718593 	-0.061699961 	0.0060056238 	1.8148921
0.0023919598 	-0.061699961 	0.0060056238 	1.8148921
0.0024120603 	-0.046801741 	-0.0034271312 	1.825152
0.0024321608 	-0.046801741 	-0.0034271312 	1.825152
0.0024522613 	-0.031242503 	-0.0067966262 	1.8595293
0.0024723618 	-0.031242503 	-0.0067966262 	1.8595293
0.0024924623 	-0.01051266 	0.01729215 	1.8583391
0.0025125628 	-0.01051266 	0.01729215 	1.8583391
0.0025326633 	-0.0021593612 	0.031060653 	1.8206481
0.0025527638 	-0.0021593612 	0.031060653 	1.8206481
0.0025728643 	-0.0043647563 	0.0071084558 	1.7784443
0.0025929648 	-0.0043647563 	0.0071084558 	1.7784443
0.0026130653 	0.014134339 	0.038756155 	1.7815482
0.0026331658 	0.014134339 	0.038756155 	1.7815482
0.0026532663 	0.019748588 	0.024444826 	1.7921659
0.0026733668 	0.019748588 	0.024444826 	1.7921659
0.0026934673 	0.020581245 	0.0063543326 	1.7957687
0.0027135678 	0.020581245 	0.0063543326 	1.7957687
0.0027336683 	0.0075409822 	0.0017331685 	1.7586445
0.0027537688 	0.0075409822 	0.0017331685 	1.7586445
0.0027738693 	0.017616452 	-0.014343973 	1.7672369
0.0027939698 	0.017616452 	-0.014343973 	1.7672369
0.0028140704 	0.020539661 	0.03220906 	1.7073448
0.0028341709 	0.020539661 	0.03220906 	1.7073448
0.0028542714 	0.037198616 	0.060913569 	1.7028011
0.0028743719 	0.036655663 	0.060428365 	1.767242
0.0028944724 	0.036655663 	0.060428365 	1.767242
0.0029145729 	0.037169452 	0.075733784 	1.8026495
0.0029346734 	0.037169452 	0.075733784 	1.8026495
0.0029547739 	0.047240309 	0.074487521 	1.8478848
0.0029748744 	0.047240309 	0.074487521 	1.8478848
0.0029949749 	0.047334315 	0.087559442 	1.8516267
0.0030150754 	0.034738158 	0.10212382 	1.8234483
0.0030351759 	0.034738158 	0.10212382 	1.8234483
0.0030552764 	0.024992319 	0.076715177 	1.7680114
0.0030753769 	0.024992319 	0.076715177 	1.7680114
0.0030954774 	-0.012859835 	0.0032058762 	1.7361576
0.0031155779 	-0.046382216 	-0.059649412 	1.6670283
0.0031356784 	-0.046382216 	-0.059649412 	1.6670283
0.0031557789 	-0.078433352 	-0.031253498 	1.6081985
0.0031758794 	-0.078433352 	-0.031253498 	1.6081985
0.0031959799 	-0.093408802 	0.031450508 	1.6150101
0.0032160804 	-0.083929009 	0.039610545 	1.6502816
0.0032361809 	-0.083929009 	0.039610545 	1.6502816
0.0032562814 	-0.088299971 	0.003880958 	1.6984602
0.0032763819 	-0.080365566 	-0.010547068 	1.7283731
0.0032964824 	-0.080365566 	-0.010547068 	1.7283731
0.0033165829 	-0.064940965 	-0.021192333 	1.7465861
0.0033366834 	-0.047439128 	-0.041848588 	1.7820105
0.0033567839 	-0.047439128 	-0.041848588 	1.7820105
0.0033768844 	-0.03321572 	-0.026820843 	1.7339411
0.0033969849 	-0.013634133 	0.033760469 	1.7342748
0.0034170854 	-0.013634133 	0.033760469 	1.7342748
0.0034371859 	0.011138708 	0.038883245 	1.7438005
0.0034572864 	0.0189557 	0.053393204 	1.736538
0.0034773869 	0.035662926 	0.03180396 	1.7236129
0.0034974874 	0.035662926 	0.03180396 	1.7236129
0.0035175879 	0.049838922 	0.027128508 	1.7088111
0.0035376884 	0.063747493 	0.050391137 	1.691985
0.0035577889 	0.067561877 	0.046421577 	1.6866373
0.0035778894 	0.067561877 	0.046421577 	1.6866373
0.0035979899 	0.066367854 	0.032556116 	1.6972989
0.0036180905 	0.07215365 	0.035700091 	1.7429075
0.003638191 	0.077989319 	0.075756264 	1.8058682
0.0036582915 	0.077989319 	0.075756264 	1.8058682
0.003678392 	0.082020916 	0.086272948 	1.8327135
0.0036984925 	0.086374619 	0.070247315 	1.8368988
0.003718593 	0.096291566 	0.033075362 	1.8081266
0.0037386935 	0.097429682 	-0.025031279 	1.7956054
0.003758794 	0.089825283 	-0.020399825 	1.7577816
0.0037788945 	0.089825283 	-0.020399825 	1.7577816
0.003798995 	0.083984214 	0.0024368428 	1.7410652
0.0038190955 	0.074776723 	-0.041998986 	1.7496133
0.003839196 	0.072977413 	-0.027545487 	1.7444847
0.0038592965 	0.072626091 	-0.067413954 	1.8883477
0.003879397 	0.072130485 	-0.097798167 	2.1266126
0.0038994975 	0.059248596 	-0.18079497 	2.1600206
0.003919598 	0.035343183 	-0.069357166 	1.9699933
0.0039396985 	0.05049078 	-0.0044220689 	1.7738265
0.003959799 	0.0021621658 	-0.081112915 	1.0883445
0.0039798995 	0.011018756 	-0.071744369 	0.4250803
0.004 	0.011018756 	-0.071744369 	0.4250803
