0 	-0.01356973 	-0.028350273 	2.0790742
2.0100503e-05 	-0.01356973 	-0.028350273 	2.0790742
4.0201005e-05 	-0.01356973 	-0.028350273 	2.0790742
6.0301508e-05 	-0.023447125 	-0.011050723 	2.0818918
8.040201e-05 	-0.023447125 	-0.011050723 	2.0818918
0.00010050251 	-0.023447125 	-0.011050723 	2.0818918
0.00012060302 	-0.047678387 	-0.011134844 	2.0652512
0.00014070352 	-0.047678387 	-0.011134844 	2.0652512
0.00016080402 	-0.047678387 	-0.011134844 	2.0652512
0.00018090452 	-0.026782769 	0.001310382 	2.0613404
0.00020100503 	-0.026782769 	0.001310382 	2.0613404
0.00022110553 	-0.026782769 	0.001310382 	2.0613404
0.00024120603 	-0.034153814 	-0.0036138294 	2.0832199
0.00026130653 	-0.034153814 	-0.0036138294 	2.0832199
0.00028140704 	-0.024481805 	0.003704535 	2.1014681
0.00030150754 	-0.024481805 	0.003704535 	2.1014681
0.00032160804 	-0.024481805 	0.003704535 	2.1014681
0.00034170854 	-0.024462159 	0.015725544 	2.1060438
0.00036180905 	-0.024462159 	0.015725544 	2.1060438
0.00038190955 	-0.024462159 	0.015725544 	2.1060438
0.00040201005 	-0.032434301 	0.0091593719 	2.0888546
0.00042211055 	-0.032434301 	0.0091593719 	2.0888546
0.00044221106 	-0.032434301 	0.0091593719 	2.0888546
0.00046231156 	-0.038850744 	0.012064277 	2.0844616
0.00048241206 	-0.038850744 	0.012064277 	2.0844616
0.00050251256 	-0.041487343 	0.010495318 	2.0718625
0.00052261307 	-0.041487343 	0.010495318 	2.0718625
0.00054271357 	-0.041487343 	0.010495318 	2.0718625
0.00056281407 	-0.027495515 	0.0067515043 	2.0936656
0.00058291457 	-0.027495515 	0.0067515043 	2.0936656
0.00060301508 	-0.027495515 	0.0067515043 	2.0936656
0.00062311558 	-0.024917823 	-0.0058601167 	2.0880748
0.00064321608 	-0.028542405 	-0.0012650764 	2.074088
0.00066331658 	-0.028542405 	-0.0012650764 	2.074088
0.00068341709 	-0.016505853 	0.0012913282 	2.0890046
0.00070351759 	-0.016505853 	0.0012913282 	2.0890046
0.00072361809 	-0.009730287 	0.013033134 	2.0831105
0.00074371859 	-0.009730287 	0.013033134 	2.0831105
0.0007638191 	-0.009730287 	0.013033134 	2.0831105
0.0007839196 	-0.0016661839 	0.023862148 	2.0770555
0.0008040201 	-0.0016661839 	0.023862148 	2.0770555
0.0008241206 	-0.0016661839 	0.023862148 	2.0770555
0.00084422111 	-0.004220468 	0.024177245 	2.0557731
0.00086432161 	-0.004220468 	0.024177245 	2.0557731
0.00088442211 	-0.004220468 	0.024177245 	2.0557731
0.00090452261 	-0.0011471216 	0.033510102 	2.0627987
0.00092462312 	-0.018459686 	0.02401409 	2.0245303
0.00094472362 	-0.010221322 	0.025086761 	2.0235843
0.00096482412 	-0.010221322 	0.025086761 	2.0235843
0.00098492462 	-0.010221322 	0.025086761 	2.0235843
0.0010050251 	-0.0036904274 	0.02329729 	2.0535736
0.0010251256 	0.010919573 	0.034006904 	2.033393
0.0010452261 	0.010919573 	0.034006904 	2.033393
0.0010653266 	0.013002114 	0.033109388 	2.0347691
0.0010854271 	0.013002114 	0.033109388 	2.0347691
0.0011055276 	0.013002114 	0.033109388 	2.0347691
0.0011256281 	0.0092971508 	-0.00085678962 	2.0713211
0.0011457286 	0.0092971508 	-0.00085678962 	2.0713211
0.0011658291 	0.0092971508 	-0.00085678962 	2.0713211
0.0011859296 	0.0051184257 	-0.00041892107 	2.0565029
0.0012060302 	0.0051184257 	-0.00041892107 	2.0565029
0.0012261307 	0.0051184257 	-0.00041892107 	2.0565029
0.0012462312 	-0.0061483529 	0.013949459 	2.0493236
0.0012663317 	-0.0061483529 	0.013949459 	2.0493236
0.0012864322 	-0.0061483529 	0.013949459 	2.0493236
0.0013065327 	-0.019736468 	0.02465843 	2.0548809
0.0013266332 	-0.019736468 	0.02465843 	2.0548809
0.0013467337 	-0.019736468 	0.02465843 	2.0548809
0.0013668342 	-0.007739168 	-0.0091165541 	2.0572088
0.0013869347 	-0.007739168 	-0.0091165541 	2.0572088
0.0014070352 	-0.007739168 	-0.0091165541 	2.0572088
0.0014271357 	-7.3759272e-05 	-0.036403472 	2.0542429
0.0014472362 	-7.3759272e-05 	-0.036403472 	2.0542429
0.0014673367 	-7.3759272e-05 	-0.036403472 	2.0542429
0.0014874372 	0.015833007 	-0.05291896 	2.0487224
0.0015075377 	0.015833007 	-0.05291896 	2.0487224
0.0015276382 	0.021167358 	-0.050318796 	2.0199028
0.0015477387 	0.021167358 	-0.050318796 	2.0199028
0.0015678392 	0.021167358 	-0.050318796 	2.0199028
0.0015879397 	0.015944704 	-0.028879899 	2.0165916
0.0016080402 	0.015944704 	-0.028879899 	2.0165916
0.0016281407 	0.015944704 	-0.028879899 	2.0165916
0.0016482412 	0.0087703288 	-0.004420847 	2.0220519
0.0016683417 	0.0087703288 	-0.004420847 	2.0220519
0.0016884422 	-0.0071808108 	0.0017270953 	2.0537448
0.0017085427 	-0.0071808108 	0.0017270953 	2.0537448
0.0017286432 	-0.0071808108 	0.0017270953 	2.0537448
0.0017487437 	-0.015588474 	-0.019628732 	2.0415565
0.0017688442 	-0.015588474 	-0.019628732 	2.0415565
0.0017889447 	-0.015588474 	-0.019628732 	2.0415565
0.0018090452 	-0.018306523 	-0.031243272 	2.0169744
0.0018291457 	-0.018306523 	-0.031243272 	2.0169744
0.0018492462 	-0.016170728 	-0.06000885 	1.991215
0.0018693467 	-0.016170728 	-0.06000885 	1.991215
0.0018894472 	-0.016170728 	-0.06000885 	1.991215
0.0019095477 	0.00087279408 	-0.06305801 	1.9803155
0.0019296482 	0.00087279408 	-0.06305801 	1.9803155
0.0019497487 	0.016221755 	-0.057591907 	1.9713562
0.0019698492 	0.016221755 	-0.057591907 	1.9713562
0.0019899497 	0.020665163 	-0.071341503 	1.95359
0.0020100503 	0.020665163 	-0.071341503 	1.95359
0.0020301508 	0.020665163 	-0.071341503 	1.95359
0.0020502513 	0.038657134 	-0.056100112 	1.9671119
0.0020703518 	0.038657134 	-0.056100112 	1.9671119
0.0020904523 	0.057356908 	-0.018733145 	1.9269776
0.0021105528 	0.057356908 	-0.018733145 	1.9269776
0.0021306533 	0.057356908 	-0.018733145 	1.9269776
0.0021507538 	0.085858214 	-0.017868498 	1.9666218
0.0021708543 	0.085858214 	-0.017868498 	1.9666218
0.0021909548 	0.089984824 	-0.019739615 	1.9702949
0.0022110553 	0.089984824 	-0.019739615 	1.9702949
0.0022311558 	0.11823865 	-0.035615515 	1.9785576
0.0022512563 	0.11823865 	-0.035615515 	1.9785576
0.0022713568 	0.10530528 	-0.023426168 	2.0533899
0.0022914573 	0.10530528 	-0.023426168 	2.0533899
0.0023115578 	0.10530528 	-0.023426168 	2.0533899
0.0023316583 	0.090782401 	-0.027758439 	2.1347974
0.0023517588 	0.090782401 	-0.027758439 	2.1347974
0.0023718593 	0.097710253 	-0.013009109 	2.1892653
0.0023919598 	0.097710253 	-0.013009109 	2.1892653
0.0024120603 	0.097425667 	0.01244008 	2.1159823
0.0024321608 	0.097425667 	0.01244008 	2.1159823
0.0024522613 	0.067067666 	0.0037000611 	2.0630152
0.0024723618 	0.067067666 	0.0037000611 	2.0630152
0.0024924623 	0.067187871 	-0.006090778 	2.0657974
0.0025125628 	0.067187871 	-0.006090778 	2.0657974
0.0025326633 	0.056196924 	-0.025760843 	2.0248623
0.0025527638 	0.056196924 	-0.025760843 	2.0248623
0.0025728643 	0.059700063 	-0.012311093 	1.9213815
0.0025929648 	0.059700063 	-0.012311093 	1.9213815
0.0026130653 	0.061152181 	-0.014783673 	2.0016727
0.0026331658 	0.061152181 	-0.014783673 	2.0016727
0.0026532663 	0.04875725 	-0.066671018 	2.0471541
0.0026733668 	0.04875725 	-0.066671018 	2.0471541
0.0026934673 	0.028274773 	-0.066913697 	1.9906179
0.0027135678 	0.028274773 	-0.066913697 	1.9906179
0.0027336683 	0.017455793 	-0.034857086 	1.9850107
0.0027537688 	0.017455793 	-0.034857086 	1.9850107
0.0027738693 	0.014548138 	0.0034472894 	1.9290759
0.0027939698 	0.014548138 	0.0034472894 	1.9290759
0.0028140704 	0.012692275 	0.023886613 	1.8678179
0.0028341709 	0.012692275 	0.023886613 	1.8678179
0.0028542714 	0.022698851 	0.040563082 	1.8910594
0.0028743719 	0.018645859 	0.043641831 	1.9181959
0.0028944724 	0.018645859 	0.043641831 	1.9181959
0.0029145729 	0.0024517526 	0.025003206 	1.818906
0.0029346734 	0.0024517526 	0.025003206 	1.818906
0.0029547739 	-4.8246876e-05 	0.058714398 	1.6918669
0.0029748744 	-4.8246876e-05 	0.058714398 	1.6918669
0.0029949749 	-0.0062209532 	0.082744944 	1.6943881
0.0030150754 	-0.016728037 	0.068354688 	1.7369641
0.0030351759 	-0.016728037 	0.068354688 	1.7369641
0.0030552764 	-0.020468609 	0.03441613 	1.7511732
0.0030753769 	-0.020468609 	0.03441613 	1.7511732
0.0030954774 	-0.017345898 	0.0078912235 	1.7509079
0.0031155779 	-0.017495252 	0.0064049846 	1.7604244
0.0031356784 	-0.017495252 	0.0064049846 	1.7604244
0.0031557789 	-0.011943012 	0.00618257 	1.7851215
0.0031758794 	-0.011943012 	0.00618257 	1.7851215
0.0031959799 	-0.011439174 	0.00090175569 	1.804062
0.0032160804 	-0.01021369 	-0.0017061749 	1.813072
0.0032361809 	-0.01021369 	-0.0017061749 	1.813072
0.0032562814 	-0.01224126 	-0.011826439 	1.8164827
0.0032763819 	-0.015549102 	-0.017312705 	1.8250011
0.0032964824 	-0.015549102 	-0.017312705 	1.8250011
0.0033165829 	-0.01589722 	0.0079069887 	1.8273576
0.0033366834 	-0.0062547329 	0.0288146 	1.8431328
0.0033567839 	-0.0062547329 	0.0288146 	1.8431328
0.0033768844 	0.0015189066 	0.016491905 	1.876776
0.0033969849 	0.0073834121 	0.012878518 	1.8972432
0.0034170854 	0.0073834121 	0.012878518 	1.8972432
0.0034371859 	0.014789806 	0.031956599 	1.8768237
0.0034572864 	0.013078636 	0.03707656 	1.8411589
0.0034773869 	0.01069918 	0.038619102 	1.8092059
0.0034974874 	0.01069918 	0.038619102 	1.8092059
0.0035175879 	0.015490374 	0.055295842 	1.7883907
0.0035376884 	0.015594131 	0.088930223 	1.8011277
0.0035577889 	0.018864331 	0.13720248 	1.7913391
0.0035778894 	0.018864331 	0.13720248 	1.7913391
0.0035979899 	0.028783654 	0.18150328 	1.7523947
0.0036180905 	0.034873423 	0.17840314 	1.7119198
0.003638191 	0.04017786 	0.16924292 	1.6760475
0.0036582915 	0.04017786 	0.16924292 	1.6760475
0.003678392 	0.04025942 	0.14508433 	1.6987627
0.0036984925 	0.035056394 	0.10340609 	1.7079507
0.003718593 	0.026111507 	0.099772419 	1.7152457
0.0037386935 	0.019719268 	0.086365935 	1.7460425
0.003758794 	0.023801666 	0.091073107 	1.8100071
0.0037788945 	0.023801666 	0.091073107 	1.8100071
0.003798995 	0.022783564 	0.052023271 	1.8701051
0.0038190955 	0.030066293 	0.075649425 	1.788961
0.003839196 	0.028133787 	0.15747579 	1.6767846
0.0038592965 	0.024028275 	0.18941153 	1.6121729
0.003879397 	0.026953194 	0.11920842 	1.5742528
0.0038994975 	0.011802978 	0.023077837 	1.5683335
0.003919598 	0.0064114835 	-0.14931884 	1.4257521
0.0039396985 	0.004601518 	0.11848529 	1.2313878
0.003959799 	0.011464986 	0.031481068 	1.1015916
0.0039798995 	-0.013405006 	-0.099611496 	0.44990352
0.004 	-0.013405006 	-0.099611496 	0.44990352
