0 	0.019038632 	0.061221619 	2.0715114
2.0100503e-05 	0.055797479 	-0.028140421 	2.0497114
4.0201005e-05 	0.055797479 	-0.028140421 	2.0497114
6.0301508e-05 	0.027039595 	-0.04748987 	2.0309087
8.040201e-05 	0.027039595 	-0.04748987 	2.0309087
0.00010050251 	0.027039595 	-0.04748987 	2.0309087
0.00012060302 	0.024108126 	-0.054145228 	2.0199516
0.00014070352 	0.024108126 	-0.054145228 	2.0199516
0.00016080402 	0.024108126 	-0.054145228 	2.0199516
0.00018090452 	0.025585137 	-0.061178214 	2.0271208
0.00020100503 	0.025585137 	-0.061178214 	2.0271208
0.00022110553 	0.025585137 	-0.061178214 	2.0271208
0.00024120603 	0.029989092 	-0.064293253 	2.0678197
0.00026130653 	0.029989092 	-0.064293253 	2.0678197
0.00028140704 	0.031781775 	-0.048985743 	2.0490253
0.00030150754 	0.019759135 	-0.038847678 	2.0364912
0.00032160804 	0.019759135 	-0.038847678 	2.0364912
0.00034170854 	0.02227914 	-0.027292518 	2.0240279
0.00036180905 	0.02227914 	-0.027292518 	2.0240279
0.00038190955 	0.02227914 	-0.027292518 	2.0240279
0.00040201005 	0.019321566 	-0.029132199 	2.0384392
0.00042211055 	0.019321566 	-0.029132199 	2.0384392
0.00044221106 	0.019321566 	-0.029132199 	2.0384392
0.00046231156 	0.027185665 	-0.013896516 	2.0492647
0.00048241206 	0.027185665 	-0.013896516 	2.0492647
0.00050251256 	0.032018296 	0.0048533897 	2.0461308
0.00052261307 	0.032018296 	0.0048533897 	2.0461308
0.00054271357 	0.032018296 	0.0048533897 	2.0461308
0.00056281407 	0.03246455 	0.0067942487 	2.0645929
0.00058291457 	0.03246455 	0.0067942487 	2.0645929
0.00060301508 	0.03246455 	0.0067942487 	2.0645929
0.00062311558 	0.034099323 	-0.0025310102 	2.0840048
0.00064321608 	0.034099323 	-0.0025310102 	2.0840048
0.00066331658 	0.034099323 	-0.0025310102 	2.0840048
0.00068341709 	0.038906262 	-0.0014836015 	2.0619814
0.00070351759 	0.038906262 	-0.0014836015 	2.0619814
0.00072361809 	0.040671713 	0.011407713 	2.0835067
0.00074371859 	0.040671713 	0.011407713 	2.0835067
0.0007638191 	0.040671713 	0.011407713 	2.0835067
0.0007839196 	0.04703921 	0.017562264 	2.0796646
0.0008040201 	0.053563103 	0.016916147 	2.0797021
0.0008241206 	0.053563103 	0.016916147 	2.0797021
0.00084422111 	0.054294662 	0.0085363508 	2.0768161
0.00086432161 	0.054294662 	0.0085363508 	2.0768161
0.00088442211 	0.054294662 	0.0085363508 	2.0768161
0.00090452261 	0.071973507 	0.028089385 	2.0607336
0.00092462312 	0.071973507 	0.028089385 	2.0607336
0.00094472362 	0.079401299 	0.025066797 	2.0738638
0.00096482412 	0.079401299 	0.025066797 	2.0738638
0.00098492462 	0.079401299 	0.025066797 	2.0738638
0.0010050251 	0.058173075 	0.0034105333 	2.0919641
0.0010251256 	0.058173075 	0.0034105333 	2.0919641
0.0010452261 	0.058173075 	0.0034105333 	2.0919641
0.0010653266 	0.058962806 	0.0053600658 	2.0704121
0.0010854271 	0.058962806 	0.0053600658 	2.0704121
0.0011055276 	0.058962806 	0.0053600658 	2.0704121
0.0011256281 	0.047264009 	0.0046255315 	2.0661888
0.0011457286 	0.047264009 	0.0046255315 	2.0661888
0.0011658291 	0.047264009 	0.0046255315 	2.0661888
0.0011859296 	0.056058458 	0.012445436 	2.0652591
0.0012060302 	0.056058458 	0.012445436 	2.0652591
0.0012261307 	0.056058458 	0.012445436 	2.0652591
0.0012462312 	0.052380516 	0.011609545 	2.0967882
0.0012663317 	0.052380516 	0.011609545 	2.0967882
0.0012864322 	0.052380516 	0.011609545 	2.0967882
0.0013065327 	0.04929082 	0.019316922 	2.1330254
0.0013266332 	0.04929082 	0.019316922 	2.1330254
0.0013467337 	0.04929082 	0.019316922 	2.1330254
0.0013668342 	0.062149392 	0.024797544 	2.0937725
0.0013869347 	0.062149392 	0.024797544 	2.0937725
0.0014070352 	0.062149392 	0.024797544 	2.0937725
0.0014271357 	0.065514338 	0.021964292 	2.072807
0.0014472362 	0.065514338 	0.021964292 	2.072807
0.0014673367 	0.065514338 	0.021964292 	2.072807
0.0014874372 	0.070623972 	0.021977477 	2.0683602
0.0015075377 	0.070623972 	0.021977477 	2.0683602
0.0015276382 	0.060454192 	0.032974699 	2.09274
0.0015477387 	0.060454192 	0.032974699 	2.09274
0.0015678392 	0.060454192 	0.032974699 	2.09274
0.0015879397 	0.048944168 	0.023777568 	2.1046241
0.0016080402 	0.048944168 	0.023777568 	2.1046241
0.0016281407 	0.048944168 	0.023777568 	2.1046241
0.0016482412 	0.046921627 	0.0040739238 	2.1003864
0.0016683417 	0.046921627 	0.0040739238 	2.1003864
0.0016884422 	0.04635898 	-0.01026435 	2.1354462
0.0017085427 	0.04635898 	-0.01026435 	2.1354462
0.0017286432 	0.04635898 	-0.01026435 	2.1354462
0.0017487437 	0.048169474 	-0.028245342 	2.1025072
0.0017688442 	0.048169474 	-0.028245342 	2.1025072
0.0017889447 	0.048169474 	-0.028245342 	2.1025072
0.0018090452 	0.041232392 	-0.036186798 	2.0913436
0.0018291457 	0.041232392 	-0.036186798 	2.0913436
0.0018492462 	0.035374503 	-0.026493589 	2.0820252
0.0018693467 	0.035374503 	-0.026493589 	2.0820252
0.0018894472 	0.035374503 	-0.026493589 	2.0820252
0.0019095477 	0.02140108 	-0.011521828 	2.0908512
0.0019296482 	0.02140108 	-0.011521828 	2.0908512
0.0019497487 	0.023201862 	-0.0040183005 	2.0942146
0.0019698492 	0.023201862 	-0.0040183005 	2.0942146
0.0019899497 	0.023507659 	0.004523265 	2.101124
0.0020100503 	0.023507659 	0.004523265 	2.101124
0.0020301508 	0.023507659 	0.004523265 	2.101124
0.0020502513 	0.036362256 	0.00041457554 	1.9607923
0.0020703518 	0.036362256 	0.00041457554 	1.9607923
0.0020904523 	0.054484675 	0.016148833 	1.9432679
0.0021105528 	0.054484675 	0.016148833 	1.9432679
0.0021306533 	0.054484675 	0.016148833 	1.9432679
0.0021507538 	0.054237492 	0.0011735702 	2.0039414
0.0021708543 	0.054237492 	0.0011735702 	2.0039414
0.0021909548 	0.044969734 	-0.024925001 	1.9512164
0.0022110553 	0.044969734 	-0.024925001 	1.9512164
0.0022311558 	0.049107773 	-0.035630374 	1.9916274
0.0022512563 	0.049107773 	-0.035630374 	1.9916274
0.0022713568 	0.054896183 	-0.046088897 	1.9953984
0.0022914573 	0.054896183 	-0.046088897 	1.9953984
0.0023115578 	0.054896183 	-0.046088897 	1.9953984
0.0023316583 	0.061477174 	-0.047818907 	1.9779801
0.0023517588 	0.061477174 	-0.047818907 	1.9779801
0.0023718593 	0.071209872 	-0.046004736 	1.9474219
0.0023919598 	0.071209872 	-0.046004736 	1.9474219
0.0024120603 	0.091992977 	-0.072757624 	1.9934271
0.0024321608 	0.091992977 	-0.072757624 	1.9934271
0.0024522613 	0.095944565 	-0.048573427 	1.9845529
0.0024723618 	0.095944565 	-0.048573427 	1.9845529
0.0024924623 	0.10163574 	-0.045226454 	2.0107809
0.0025125628 	0.10163574 	-0.045226454 	2.0107809
0.0025326633 	0.086795161 	-0.046680417 	1.994702
0.0025527638 	0.086795161 	-0.046680417 	1.994702
0.0025728643 	0.08114344 	-0.0282865 	1.9833737
0.0025929648 	0.08114344 	-0.0282865 	1.9833737
0.0026130653 	0.073480037 	-0.011439128 	1.9755921
0.0026331658 	0.073480037 	-0.011439128 	1.9755921
0.0026532663 	0.078462805 	-0.039394358 	1.9439665
0.0026733668 	0.078462805 	-0.039394358 	1.9439665
0.0026934673 	0.063772614 	-0.057742557 	1.9427112
0.0027135678 	0.063772614 	-0.057742557 	1.9427112
0.0027336683 	0.060785391 	-0.07200638 	1.9653326
0.0027537688 	0.060785391 	-0.07200638 	1.9653326
0.0027738693 	0.047650779 	-0.10230598 	1.9900454
0.0027939698 	0.047650779 	-0.10230598 	1.9900454
0.0028140704 	0.038847982 	-0.09030288 	1.9919058
0.0028341709 	0.038847982 	-0.09030288 	1.9919058
0.0028542714 	0.043352922 	-0.090141907 	1.9753335
0.0028743719 	0.042524687 	-0.11652449 	1.9579915
0.0028944724 	0.042524687 	-0.11652449 	1.9579915
0.0029145729 	0.040401476 	-0.1072951 	1.9484993
0.0029346734 	0.040401476 	-0.1072951 	1.9484993
0.0029547739 	0.036019339 	-0.13035199 	1.9751932
0.0029748744 	0.036019339 	-0.13035199 	1.9751932
0.0029949749 	0.02871468 	-0.16413793 	1.9743993
0.0030150754 	0.025534533 	-0.10678262 	1.9815942
0.0030351759 	0.025534533 	-0.10678262 	1.9815942
0.0030552764 	0.014420311 	-0.069748255 	1.9784837
0.0030753769 	0.014420311 	-0.069748255 	1.9784837
0.0030954774 	0.022353998 	-0.045618338 	1.8548919
0.0031155779 	0.02868676 	-0.064588075 	1.8419162
0.0031356784 	0.02868676 	-0.064588075 	1.8419162
0.0031557789 	0.025260188 	-0.099279237 	1.8712692
0.0031758794 	0.025260188 	-0.099279237 	1.8712692
0.0031959799 	0.019814973 	-0.072630673 	1.8727858
0.0032160804 	0.01818245 	-0.036874488 	1.8901728
0.0032361809 	0.01818245 	-0.036874488 	1.8901728
0.0032562814 	0.011305762 	-0.020988347 	1.9258955
0.0032763819 	0.0017589383 	-0.00097089125 	1.9846657
0.0032964824 	0.0017589383 	-0.00097089125 	1.9846657
0.0033165829 	0.0095565339 	0.029609994 	2.0543735
0.0033366834 	0.01833902 	-0.047205436 	2.046698
0.0033567839 	0.01833902 	-0.047205436 	2.046698
0.0033768844 	0.044116348 	-0.0039021331 	1.8528123
0.0033969849 	0.029145722 	0.139548 	1.6661944
0.0034170854 	0.029145722 	0.139548 	1.6661944
0.0034371859 	0.0018171556 	0.095771859 	1.7011817
0.0034572864 	0.0086765405 	0.092310442 	1.7054348
0.0034773869 	0.005512299 	0.058794191 	1.7126057
0.0034974874 	0.005512299 	0.058794191 	1.7126057
0.0035175879 	0.010299077 	0.041090646 	1.7042451
0.0035376884 	0.01204119 	0.040153382 	1.6620873
0.0035577889 	0.012847197 	0.034662755 	1.6219675
0.0035778894 	0.012847197 	0.034662755 	1.6219675
0.0035979899 	-0.00090679634 	0.044652956 	1.5891399
0.0036180905 	-0.0047938655 	0.062513309 	1.5729194
0.003638191 	-0.006164747 	0.10266953 	1.5489111
0.0036582915 	-0.006164747 	0.10266953 	1.5489111
0.003678392 	-0.011423577 	0.11264139 	1.5580143
0.0036984925 	-0.016830026 	0.084229584 	1.5732576
0.003718593 	-0.013283974 	0.070584252 	1.5672096
0.0037386935 	-0.02237974 	0.0808271 	1.5395644
0.003758794 	-0.022781812 	0.046942424 	1.5079564
0.0037788945 	-0.022781812 	0.046942424 	1.5079564
0.003798995 	-0.021551151 	-0.0067870452 	1.4634727
0.0038190955 	-0.032701887 	0.021328115 	1.3859481
0.003839196 	-0.033444228 	0.065889311 	1.3968235
0.0038592965 	-0.043252024 	0.086555428 	1.3913986
0.003879397 	-0.033834849 	0.096080142 	1.3957124
0.0038994975 	-0.033389849 	0.22877321 	1.3705493
0.003919598 	-0.034787145 	0.37767015 	1.3744449
0.0039396985 	-0.0087132886 	0.19594774 	1.4476694
0.003959799 	-0.0086522163 	-0.049713863 	1.1813534
0.0039798995 	-0.0035912422 	-0.0085460656 	0.42638554
0.004 	-0.0035912422 	-0.0085460656 	0.42638554
