0 	0.015238961 	-0.025186797 	2.0709786
2.0100503e-05 	0.015238961 	-0.025186797 	2.0709786
4.0201005e-05 	0.015238961 	-0.025186797 	2.0709786
6.0301508e-05 	-0.00060699863 	-0.028071643 	2.0518755
8.040201e-05 	-0.00060699863 	-0.028071643 	2.0518755
0.00010050251 	-0.00060699863 	-0.028071643 	2.0518755
0.00012060302 	-0.0051724754 	-0.031408097 	2.0479339
0.00014070352 	-0.0051724754 	-0.031408097 	2.0479339
0.00016080402 	-0.027974981 	-0.017258614 	2.0502953
0.00018090452 	-0.03202129 	-0.020818381 	2.048472
0.00020100503 	-0.03202129 	-0.020818381 	2.048472
0.00022110553 	-0.03202129 	-0.020818381 	2.048472
0.00024120603 	-0.038780053 	-0.022531284 	2.0576033
0.00026130653 	-0.0083141791 	-0.035015568 	2.0575883
0.00028140704 	-0.014938783 	-0.03631858 	2.0645413
0.00030150754 	-0.014938783 	-0.03631858 	2.0645413
0.00032160804 	-0.014938783 	-0.03631858 	2.0645413
0.00034170854 	-0.025806413 	-0.032173249 	2.0465943
0.00036180905 	-0.025806413 	-0.032173249 	2.0465943
0.00038190955 	-0.025806413 	-0.032173249 	2.0465943
0.00040201005 	-0.049796857 	-0.023681138 	2.048404
0.00042211055 	-0.049796857 	-0.023681138 	2.048404
0.00044221106 	-0.049796857 	-0.023681138 	2.048404
0.00046231156 	-0.048536017 	-0.023211018 	2.0487297
0.00048241206 	-0.048536017 	-0.023211018 	2.0487297
0.00050251256 	-0.047652902 	-0.019935425 	2.0456789
0.00052261307 	-0.047652902 	-0.019935425 	2.0456789
0.00054271357 	-0.047652902 	-0.019935425 	2.0456789
0.00056281407 	-0.053803637 	-0.020311718 	2.0411953
0.00058291457 	-0.053803637 	-0.020311718 	2.0411953
0.00060301508 	-0.049711478 	-0.032890589 	2.031106
0.00062311558 	-0.053629592 	-0.028425601 	2.0235703
0.00064321608 	-0.053629592 	-0.028425601 	2.0235703
0.00066331658 	-0.053629592 	-0.028425601 	2.0235703
0.00068341709 	-0.053516544 	-0.022480477 	2.0294615
0.00070351759 	-0.053516544 	-0.022480477 	2.0294615
0.00072361809 	-0.055262013 	-0.01763824 	2.038276
0.00074371859 	-0.055262013 	-0.01763824 	2.038276
0.0007638191 	-0.055262013 	-0.01763824 	2.038276
0.0007839196 	-0.056371834 	-0.0077762531 	2.0310012
0.0008040201 	-0.056371834 	-0.0077762531 	2.0310012
0.0008241206 	-0.056371834 	-0.0077762531 	2.0310012
0.00084422111 	-0.053729854 	0.0037414101 	2.0176653
0.00086432161 	-0.053729854 	0.0037414101 	2.0176653
0.00088442211 	-0.053729854 	0.0037414101 	2.0176653
0.00090452261 	-0.051490346 	0.0077700477 	2.0051935
0.00092462312 	-0.051490346 	0.0077700477 	2.0051935
0.00094472362 	-0.043021087 	0.0074045706 	2.0031075
0.00096482412 	-0.043021087 	0.0074045706 	2.0031075
0.00098492462 	-0.043021087 	0.0074045706 	2.0031075
0.0010050251 	-0.047140696 	-0.0055322837 	2.0029275
0.0010251256 	-0.047140696 	-0.0055322837 	2.0029275
0.0010452261 	-0.047140696 	-0.0055322837 	2.0029275
0.0010653266 	-0.046777682 	-0.020793971 	2.0190846
0.0010854271 	-0.046777682 	-0.020793971 	2.0190846
0.0011055276 	-0.046777682 	-0.020793971 	2.0190846
0.0011256281 	-0.052157823 	-0.042490795 	2.015122
0.0011457286 	-0.052157823 	-0.042490795 	2.015122
0.0011658291 	-0.052157823 	-0.042490795 	2.015122
0.0011859296 	-0.044032792 	-0.0617542 	2.0076956
0.0012060302 	-0.044032792 	-0.0617542 	2.0076956
0.0012261307 	-0.044032792 	-0.0617542 	2.0076956
0.0012462312 	-0.039032383 	-0.065721814 	1.9994302
0.0012663317 	-0.039032383 	-0.065721814 	1.9994302
0.0012864322 	-0.039032383 	-0.065721814 	1.9994302
0.0013065327 	-0.042483886 	-0.068545923 	2.0213346
0.0013266332 	-0.042483886 	-0.068545923 	2.0213346
0.0013467337 	-0.042483886 	-0.068545923 	2.0213346
0.0013668342 	-0.04164911 	-0.057401475 	2.0142324
0.0013869347 	-0.04164911 	-0.057401475 	2.0142324
0.0014070352 	-0.04164911 	-0.057401475 	2.0142324
0.0014271357 	-0.035541262 	-0.046215312 	1.9880154
0.0014472362 	-0.035541262 	-0.046215312 	1.9880154
0.0014673367 	-0.035541262 	-0.046215312 	1.9880154
0.0014874372 	-0.033043328 	-0.047026001 	1.9706283
0.0015075377 	-0.033043328 	-0.047026001 	1.9706283
0.0015276382 	-0.037621637 	-0.038184075 	1.9378047
0.0015477387 	-0.037621637 	-0.038184075 	1.9378047
0.0015678392 	-0.037621637 	-0.038184075 	1.9378047
0.0015879397 	-0.02907036 	-0.033111031 	1.9313039
0.0016080402 	-0.02907036 	-0.033111031 	1.9313039
0.0016281407 	-0.02907036 	-0.033111031 	1.9313039
0.0016482412 	-0.024311987 	-0.034059983 	1.929942
0.0016683417 	-0.024311987 	-0.034059983 	1.929942
0.0016884422 	-0.020544551 	-0.038275984 	1.9238251
0.0017085427 	-0.020544551 	-0.038275984 	1.9238251
0.0017286432 	-0.020544551 	-0.038275984 	1.9238251
0.0017487437 	-0.0185304 	-0.044235246 	1.9373767
0.0017688442 	-0.0185304 	-0.044235246 	1.9373767
0.0017889447 	-0.0185304 	-0.044235246 	1.9373767
0.0018090452 	-0.022757611 	-0.053138695 	1.9674426
0.0018291457 	-0.022757611 	-0.053138695 	1.9674426
0.0018492462 	-0.023916081 	-0.045181985 	1.9285372
0.0018693467 	-0.023916081 	-0.045181985 	1.9285372
0.0018894472 	-0.023916081 	-0.045181985 	1.9285372
0.0019095477 	-0.016768286 	-0.033638957 	1.9168265
0.0019296482 	-0.016768286 	-0.033638957 	1.9168265
0.0019497487 	-0.022177507 	-0.034663221 	1.9268933
0.0019698492 	-0.022177507 	-0.034663221 	1.9268933
0.0019899497 	-0.016245959 	-0.027041715 	1.9243306
0.0020100503 	-0.016245959 	-0.027041715 	1.9243306
0.0020301508 	-0.016245959 	-0.027041715 	1.9243306
0.0020502513 	-0.021040457 	-0.018549642 	1.9040961
0.0020703518 	-0.021040457 	-0.018549642 	1.9040961
0.0020904523 	-0.023002565 	-0.011429354 	1.8794351
0.0021105528 	-0.023002565 	-0.011429354 	1.8794351
0.0021306533 	-0.023002565 	-0.011429354 	1.8794351
0.0021507538 	-0.022647756 	-0.0033288049 	1.8520732
0.0021708543 	-0.022647756 	-0.0033288049 	1.8520732
0.0021909548 	-0.036777194 	-0.0024582837 	1.8912868
0.0022110553 	-0.036777194 	-0.0024582837 	1.8912868
0.0022311558 	-0.03824916 	-0.0059063384 	1.9214631
0.0022512563 	-0.03824916 	-0.0059063384 	1.9214631
0.0022713568 	-0.039908745 	0.013128688 	1.8600119
0.0022914573 	-0.039908745 	0.013128688 	1.8600119
0.0023115578 	-0.039908745 	0.013128688 	1.8600119
0.0023316583 	-0.049517342 	0.019884877 	1.8426114
0.0023517588 	-0.049517342 	0.019884877 	1.8426114
0.0023718593 	-0.035495443 	-0.0015838574 	1.8746912
0.0023919598 	-0.035495443 	-0.0015838574 	1.8746912
0.0024120603 	-0.045218946 	-0.0096316684 	1.8906443
0.0024321608 	-0.045218946 	-0.0096316684 	1.8906443
0.0024522613 	-0.040847491 	0.018812968 	1.8541104
0.0024723618 	-0.040847491 	0.018812968 	1.8541104
0.0024924623 	-0.029704436 	0.020813668 	1.8522481
0.0025125628 	-0.029704436 	0.020813668 	1.8522481
0.0025326633 	-0.015309548 	0.00063698027 	1.8981451
0.0025527638 	-0.015309548 	0.00063698027 	1.8981451
0.0025728643 	-0.0093562894 	-0.0015288703 	1.9157644
0.0025929648 	-0.0093562894 	-0.0015288703 	1.9157644
0.0026130653 	0.00072100084 	0.0035299796 	1.8679143
0.0026331658 	0.00072100084 	0.0035299796 	1.8679143
0.0026532663 	0.015931156 	0.0021464761 	1.8642281
0.0026733668 	0.015931156 	0.0021464761 	1.8642281
0.0026934673 	0.010869672 	0.031755365 	1.8801727
0.0027135678 	0.010869672 	0.031755365 	1.8801727
0.0027336683 	0.0043388293 	0.058333815 	1.8776784
0.0027537688 	0.0043388293 	0.058333815 	1.8776784
0.0027738693 	0.01993657 	0.045751954 	1.8729474
0.0027939698 	0.01993657 	0.045751954 	1.8729474
0.0028140704 	0.026234565 	0.031679018 	1.8929573
0.0028341709 	0.026234565 	0.031679018 	1.8929573
0.0028542714 	0.031765018 	0.020073081 	1.8797625
0.0028743719 	0.028465349 	0.043958307 	1.839567
0.0028944724 	0.028465349 	0.043958307 	1.839567
0.0029145729 	0.019228645 	0.051990562 	1.8452916
0.0029346734 	0.019228645 	0.051990562 	1.8452916
0.0029547739 	0.016890222 	0.034829328 	1.8525269
0.0029748744 	0.016890222 	0.034829328 	1.8525269
0.0029949749 	0.027143103 	0.040763371 	1.8546674
0.0030150754 	0.032955861 	0.023688641 	1.8737903
0.0030351759 	0.032955861 	0.023688641 	1.8737903
0.0030552764 	0.036671806 	0.011976548 	1.8367183
0.0030753769 	0.036671806 	0.011976548 	1.8367183
0.0030954774 	0.040782401 	0.010757668 	1.8330973
0.0031155779 	0.042879779 	0.025947171 	1.8610374
0.0031356784 	0.042879779 	0.025947171 	1.8610374
0.0031557789 	0.037424646 	0.012985859 	1.8401442
0.0031758794 	0.037424646 	0.012985859 	1.8401442
0.0031959799 	0.043931437 	-0.01171014 	1.8352773
0.0032160804 	0.05129705 	-0.014765729 	1.8184866
0.0032361809 	0.05129705 	-0.014765729 	1.8184866
0.0032562814 	0.062023302 	-0.030094614 	1.7880802
0.0032763819 	0.067335549 	-0.068029373 	1.7974185
0.0032964824 	0.067335549 	-0.068029373 	1.7974185
0.0033165829 	0.062549321 	-0.041714498 	1.7966884
0.0033366834 	0.075697384 	-0.0071594619 	1.7707973
0.0033567839 	0.075697384 	-0.0071594619 	1.7707973
0.0033768844 	0.068870127 	-0.049226378 	1.7646904
0.0033969849 	0.056226482 	-0.010314589 	1.7528867
0.0034170854 	0.056226482 	-0.010314589 	1.7528867
0.0034371859 	0.050745549 	0.0056115439 	1.874708
0.0034572864 	0.041466092 	-0.00073578729 	1.9642093
0.0034773869 	0.034234701 	-0.078455734 	1.939618
0.0034974874 	0.034234701 	-0.078455734 	1.939618
0.0035175879 	0.0010088462 	-0.026182095 	1.8254231
0.0035376884 	-0.041475911 	0.09616557 	1.7189755
0.0035577889 	-0.085069648 	0.097563015 	1.6339986
0.0035778894 	-0.085069648 	0.097563015 	1.6339986
0.0035979899 	-0.09562059 	0.030457382 	1.5967644
0.0036180905 	-0.10018998 	0.024649354 	1.6225038
0.003638191 	-0.097044618 	0.043115543 	1.6489235
0.0036582915 	-0.097044618 	0.043115543 	1.6489235
0.003678392 	-0.092032773 	0.061127104 	1.6681293
0.0036984925 	-0.075680471 	0.074842946 	1.6897496
0.003718593 	-0.054857424 	0.060718721 	1.6627138
0.0037386935 	-0.049239052 	0.092440432 	1.6684359
0.003758794 	-0.047090099 	0.1020751 	1.6864633
0.0037788945 	-0.047090099 	0.1020751 	1.6864633
0.003798995 	-0.047123189 	0.084767769 	1.7088015
0.0038190955 	-0.008241206 	0.1115921 	1.6608121
0.003839196 	-0.0083974187 	0.088319431 	1.7062026
0.0038592965 	0.036103695 	0.0019116302 	1.6984857
0.003879397 	0.052028521 	0.063899077 	1.599737
0.0038994975 	0.038099532 	0.034396646 	1.543561
0.003919598 	-0.032756709 	-0.2145595 	1.6416407
0.0039396985 	-0.011340562 	-0.082571159 	1.1302643
0.003959799 	-0.0066107923 	0.10744342 	1.0710557
0.0039798995 	-0.012925313 	-0.24701805 	0.44579512
0.004 	-0.012925313 	-0.24701805 	0.44579512
