0 	0.017650319 	-0.011543892 	2.0871969
2.0100503e-05 	0.012036318 	0.015543579 	2.0963198
4.0201005e-05 	0.012036318 	0.015543579 	2.0963198
6.0301508e-05 	0.0019031735 	0.014166295 	2.0577236
8.040201e-05 	0.0019031735 	0.014166295 	2.0577236
0.00010050251 	0.0019031735 	0.014166295 	2.0577236
0.00012060302 	-0.0020324081 	0.011045623 	2.0069905
0.00014070352 	-0.0020324081 	0.011045623 	2.0069905
0.00016080402 	-0.0020324081 	0.011045623 	2.0069905
0.00018090452 	-0.01182929 	0.0074281575 	2.0263374
0.00020100503 	-0.01182929 	0.0074281575 	2.0263374
0.00022110553 	-0.01182929 	0.0074281575 	2.0263374
0.00024120603 	-0.014946235 	0.0014290541 	2.0567428
0.00026130653 	-0.014946235 	0.0014290541 	2.0567428
0.00028140704 	-0.021493294 	-0.0049764384 	2.026998
0.00030150754 	-0.021493294 	-0.0049764384 	2.026998
0.00032160804 	-0.021493294 	-0.0049764384 	2.026998
0.00034170854 	-0.016105021 	-0.0047876837 	2.0290572
0.00036180905 	-0.016105021 	-0.0047876837 	2.0290572
0.00038190955 	-0.016105021 	-0.0047876837 	2.0290572
0.00040201005 	-0.013718498 	-0.0069030819 	2.0346258
0.00042211055 	-0.013718498 	-0.0069030819 	2.0346258
0.00044221106 	-0.013718498 	-0.0069030819 	2.0346258
0.00046231156 	-0.0046200998 	-0.018203692 	2.0395552
0.00048241206 	-0.0046200998 	-0.018203692 	2.0395552
0.00050251256 	0.001024122 	-0.036311404 	2.0549335
0.00052261307 	0.001024122 	-0.036311404 	2.0549335
0.00054271357 	0.001024122 	-0.036311404 	2.0549335
0.00056281407 	0.015262974 	-0.048039606 	2.0565078
0.00058291457 	0.015262974 	-0.048039606 	2.0565078
0.00060301508 	0.015262974 	-0.048039606 	2.0565078
0.00062311558 	0.022911073 	-0.049743692 	2.0486069
0.00064321608 	0.022911073 	-0.049743692 	2.0486069
0.00066331658 	0.022911073 	-0.049743692 	2.0486069
0.00068341709 	0.03315224 	-0.047513863 	2.0570526
0.00070351759 	0.03315224 	-0.047513863 	2.0570526
0.00072361809 	0.04318415 	-0.022254145 	2.0313702
0.00074371859 	0.04318415 	-0.022254145 	2.0313702
0.0007638191 	0.04318415 	-0.022254145 	2.0313702
0.0007839196 	0.062475521 	-0.022397423 	2.0753963
0.0008040201 	0.062475521 	-0.022397423 	2.0753963
0.0008241206 	0.062475521 	-0.022397423 	2.0753963
0.00084422111 	0.048429821 	-0.014415522 	2.0953419
0.00086432161 	0.048429821 	-0.014415522 	2.0953419
0.00088442211 	0.048429821 	-0.014415522 	2.0953419
0.00090452261 	0.046158746 	-0.0098250365 	2.052388
0.00092462312 	0.046158746 	-0.0098250365 	2.052388
0.00094472362 	0.038023737 	0.0015517993 	2.0204657
0.00096482412 	0.038023737 	0.0015517993 	2.0204657
0.00098492462 	0.038023737 	0.0015517993 	2.0204657
0.0010050251 	0.024478999 	0.014694996 	1.9854818
0.0010251256 	0.024478999 	0.014694996 	1.9854818
0.0010452261 	0.024478999 	0.014694996 	1.9854818
0.0010653266 	0.041082463 	0.005903287 	1.9832739
0.0010854271 	0.041082463 	0.005903287 	1.9832739
0.0011055276 	0.041082463 	0.005903287 	1.9832739
0.0011256281 	0.061902049 	-0.022705118 	2.0199309
0.0011457286 	0.061902049 	-0.022705118 	2.0199309
0.0011658291 	0.061902049 	-0.022705118 	2.0199309
0.0011859296 	0.069988391 	-0.030677061 	2.0045244
0.0012060302 	0.069988391 	-0.030677061 	2.0045244
0.0012261307 	0.069988391 	-0.030677061 	2.0045244
0.0012462312 	0.074869838 	-0.009540861 	2.0470086
0.0012663317 	0.074869838 	-0.009540861 	2.0470086
0.0012864322 	0.074869838 	-0.009540861 	2.0470086
0.0013065327 	0.073865904 	0.010372024 	2.0571423
0.0013266332 	0.073865904 	0.010372024 	2.0571423
0.0013467337 	0.073865904 	0.010372024 	2.0571423
0.0013668342 	0.064506361 	-0.00049377999 	2.026258
0.0013869347 	0.064506361 	-0.00049377999 	2.026258
0.0014070352 	0.064506361 	-0.00049377999 	2.026258
0.0014271357 	0.074431753 	0.0035637086 	2.078562
0.0014472362 	0.074431753 	0.0035637086 	2.078562
0.0014673367 	0.074431753 	0.0035637086 	2.078562
0.0014874372 	0.054317468 	-0.0045121573 	2.0649546
0.0015075377 	0.054317468 	-0.0045121573 	2.0649546
0.0015276382 	0.06525497 	0.0044873224 	1.9988446
0.0015477387 	0.06525497 	0.0044873224 	1.9988446
0.0015678392 	0.06525497 	0.0044873224 	1.9988446
0.0015879397 	0.061983174 	0.0057553053 	2.0006716
0.0016080402 	0.061983174 	0.0057553053 	2.0006716
0.0016281407 	0.061983174 	0.0057553053 	2.0006716
0.0016482412 	0.063325893 	0.0094652837 	1.9967658
0.0016683417 	0.063325893 	0.0094652837 	1.9967658
0.0016884422 	0.054604252 	0.0050730085 	1.9722831
0.0017085427 	0.054604252 	0.0050730085 	1.9722831
0.0017286432 	0.054604252 	0.0050730085 	1.9722831
0.0017487437 	0.063295137 	0.0026051547 	1.906323
0.0017688442 	0.063295137 	0.0026051547 	1.906323
0.0017889447 	0.063295137 	0.0026051547 	1.906323
0.0018090452 	0.049888073 	0.022523276 	1.9326844
0.0018291457 	0.049888073 	0.022523276 	1.9326844
0.0018492462 	0.050810615 	0.038865068 	1.9815559
0.0018693467 	0.050810615 	0.038865068 	1.9815559
0.0018894472 	0.050810615 	0.038865068 	1.9815559
0.0019095477 	0.052869341 	0.056081781 	2.0235263
0.0019296482 	0.052869341 	0.056081781 	2.0235263
0.0019497487 	0.061047996 	0.050092724 	2.0135341
0.0019698492 	0.061047996 	0.050092724 	2.0135341
0.0019899497 	0.061047996 	0.050092724 	2.0135341
0.0020100503 	0.042673197 	0.077392743 	2.0459947
0.0020301508 	0.042673197 	0.077392743 	2.0459947
0.0020502513 	0.023064828 	0.062152314 	2.0029762
0.0020703518 	0.023064828 	0.062152314 	2.0029762
0.0020904523 	0.02382363 	0.062209436 	1.9373121
0.0021105528 	0.02382363 	0.062209436 	1.9373121
0.0021306533 	0.02382363 	0.062209436 	1.9373121
0.0021507538 	0.034370572 	0.046311036 	1.9202713
0.0021708543 	0.034370572 	0.046311036 	1.9202713
0.0021909548 	0.042554993 	0.031639812 	1.8882791
0.0022110553 	0.042554993 	0.031639812 	1.8882791
0.0022311558 	0.041884408 	0.036522377 	1.8668142
0.0022512563 	0.041884408 	0.036522377 	1.8668142
0.0022713568 	0.034644484 	0.041514258 	1.8892462
0.0022914573 	0.034644484 	0.041514258 	1.8892462
0.0023115578 	0.034644484 	0.041514258 	1.8892462
0.0023316583 	0.053706044 	0.016133708 	1.9192952
0.0023517588 	0.053706044 	0.016133708 	1.9192952
0.0023718593 	0.056121429 	-0.0034353642 	1.9145484
0.0023919598 	0.056121429 	-0.0034353642 	1.9145484
0.0024120603 	0.077653403 	-0.026584622 	1.9207181
0.0024321608 	0.077653403 	-0.026584622 	1.9207181
0.0024522613 	0.074180174 	-0.053689487 	1.8998527
0.0024723618 	0.074180174 	-0.053689487 	1.8998527
0.0024924623 	0.097108968 	-0.068736635 	1.873037
0.0025125628 	0.097108968 	-0.068736635 	1.873037
0.0025326633 	0.099176943 	-0.060100513 	1.8775591
0.0025527638 	0.099176943 	-0.060100513 	1.8775591
0.0025728643 	0.096528372 	-0.040290902 	1.8801555
0.0025929648 	0.096528372 	-0.040290902 	1.8801555
0.0026130653 	0.11239101 	-0.02305931 	1.9507432
0.0026331658 	0.11239101 	-0.02305931 	1.9507432
0.0026532663 	0.11146472 	-0.023593295 	1.9068667
0.0026733668 	0.11146472 	-0.023593295 	1.9068667
0.0026934673 	0.12885647 	-0.037314194 	1.9064831
0.0027135678 	0.12885647 	-0.037314194 	1.9064831
0.0027336683 	0.1041124 	-0.01738638 	1.9308078
0.0027537688 	0.1041124 	-0.01738638 	1.9308078
0.0027738693 	0.081260517 	0.015904082 	1.9155749
0.0027939698 	0.081260517 	0.015904082 	1.9155749
0.0028140704 	0.063710536 	-0.0080878106 	2.0105311
0.0028341709 	0.063710536 	-0.0080878106 	2.0105311
0.0028542714 	0.035654497 	-0.015883879 	2.0508135
0.0028743719 	0.027741543 	-0.013116118 	1.9258173
0.0028944724 	0.027741543 	-0.013116118 	1.9258173
0.0029145729 	0.024821162 	-0.0014387476 	1.83349
0.0029346734 	0.024821162 	-0.0014387476 	1.83349
0.0029547739 	0.017817066 	0.0069592562 	1.7921065
0.0029748744 	0.017817066 	0.0069592562 	1.7921065
0.0029949749 	0.01740925 	0.025614812 	1.7479343
0.0030150754 	0.010725114 	0.038568804 	1.7524579
0.0030351759 	0.010725114 	0.038568804 	1.7524579
0.0030552764 	0.0038495979 	0.022466875 	1.7769155
0.0030753769 	0.0038495979 	0.022466875 	1.7769155
0.0030954774 	-0.00057224651 	0.027668169 	1.7865928
0.0031155779 	-0.0027298793 	0.038932717 	1.7829824
0.0031356784 	-0.0027298793 	0.038932717 	1.7829824
0.0031557789 	-0.012180994 	0.044457487 	1.7593106
0.0031758794 	-0.012180994 	0.044457487 	1.7593106
0.0031959799 	-0.024588503 	0.07395503 	1.7305342
0.0032160804 	-0.035469043 	0.056726622 	1.7418769
0.0032361809 	-0.035469043 	0.056726622 	1.7418769
0.0032562814 	-0.052560287 	-0.008505518 	1.7562362
0.0032763819 	-0.073710682 	-0.010787536 	1.7404886
0.0032964824 	-0.073710682 	-0.010787536 	1.7404886
0.0033165829 	-0.088237796 	0.01721699 	1.7854843
0.0033366834 	-0.093514974 	-0.0031908524 	1.8751907
0.0033567839 	-0.093514974 	-0.0031908524 	1.8751907
0.0033768844 	-0.09762189 	-0.017962193 	1.8783699
0.0033969849 	-0.094527308 	-0.021200742 	1.7795448
0.0034170854 	-0.094527308 	-0.021200742 	1.7795448
0.0034371859 	-0.090294773 	-0.033388261 	1.7082335
0.0034572864 	-0.086431865 	-0.036940899 	1.6664947
0.0034773869 	-0.080202497 	-0.03922857 	1.6478415
0.0034974874 	-0.080202497 	-0.03922857 	1.6478415
0.0035175879 	-0.067822979 	-0.030275563 	1.6515131
0.0035376884 	-0.048884956 	-0.02000066 	1.638571
0.0035577889 	-0.032090632 	-0.0041797064 	1.6303338
0.0035778894 	-0.032090632 	-0.0041797064 	1.6303338
0.0035979899 	-0.020220369 	0.034488427 	1.6370437
0.0036180905 	-0.0089716505 	0.071275425 	1.638339
0.003638191 	-0.0064572395 	0.13503321 	1.617467
0.0036582915 	-0.0064572395 	0.13503321 	1.617467
0.003678392 	-0.0058845794 	0.16882486 	1.5817014
0.0036984925 	-0.0064873628 	0.13533571 	1.5250745
0.003718593 	-0.0041102627 	0.09034243 	1.4803833
0.0037386935 	-0.0087509419 	0.048654221 	1.4501383
0.003758794 	-0.012153875 	0.03545518 	1.4395007
0.0037788945 	-0.012153875 	0.03545518 	1.4395007
0.003798995 	0.00047749283 	0.060641274 	1.4097555
0.0038190955 	-0.00038012323 	0.18745095 	1.4089694
0.003839196 	0.00087548423 	0.26163146 	1.4661059
0.0038592965 	-0.0053040658 	0.1742998 	1.4496794
0.003879397 	-0.0071570839 	0.069864744 	1.433143
0.0038994975 	0.013513442 	0.028672136 	1.3753747
0.003919598 	0.0074262705 	0.011534572 	1.4497909
0.0039396985 	0.00011826687 	0.13054705 	1.6114822
0.003959799 	0.0095976526 	-0.00028178026 	1.4049668
0.0039798995 	-0.005401665 	0.034111361 	0.58135754
0.004 	-0.005401665 	0.034111361 	0.58135754
