0 	0.026906821 	-0.0027519641 	2.0580767
2.0100503e-05 	0.026906821 	-0.0027519641 	2.0580767
4.0201005e-05 	0.026906821 	-0.0027519641 	2.0580767
6.0301508e-05 	0.027061604 	0.021477069 	2.0298896
8.040201e-05 	0.027061604 	0.021477069 	2.0298896
0.00010050251 	0.027061604 	0.021477069 	2.0298896
0.00012060302 	0.012565235 	0.032848203 	2.0009756
0.00014070352 	0.012565235 	0.032848203 	2.0009756
0.00016080402 	0.012565235 	0.032848203 	2.0009756
0.00018090452 	0.0073799823 	0.035378018 	2.0310459
0.00020100503 	0.0073799823 	0.035378018 	2.0310459
0.00022110553 	0.0073799823 	0.035378018 	2.0310459
0.00024120603 	-0.00040486775 	0.036892697 	2.0424482
0.00026130653 	0.00015494249 	0.034384499 	2.0497056
0.00028140704 	0.0085679739 	0.025422761 	2.0375071
0.00030150754 	0.0085679739 	0.025422761 	2.0375071
0.00032160804 	0.0085679739 	0.025422761 	2.0375071
0.00034170854 	0.011279197 	0.035999745 	2.0265029
0.00036180905 	0.011279197 	0.035999745 	2.0265029
0.00038190955 	0.011279197 	0.035999745 	2.0265029
0.00040201005 	0.0092225428 	0.03853749 	2.0643329
0.00042211055 	0.0092225428 	0.03853749 	2.0643329
0.00044221106 	0.0092225428 	0.03853749 	2.0643329
0.00046231156 	0.018463183 	0.043882417 	2.0590501
0.00048241206 	0.018463183 	0.043882417 	2.0590501
0.00050251256 	0.014700398 	0.034520085 	2.0600375
0.00052261307 	0.014700398 	0.034520085 	2.0600375
0.00054271357 	0.014700398 	0.034520085 	2.0600375
0.00056281407 	0.0082221279 	0.025005708 	2.0515918
0.00058291457 	0.0082221279 	0.025005708 	2.0515918
0.00060301508 	0.0082221279 	0.025005708 	2.0515918
0.00062311558 	0.018607559 	0.0064984335 	1.9789649
0.00064321608 	0.018607559 	0.0064984335 	1.9789649
0.00066331658 	0.018607559 	0.0064984335 	1.9789649
0.00068341709 	0.0086408899 	-0.0074420696 	1.9660629
0.00070351759 	0.0086408899 	-0.0074420696 	1.9660629
0.00072361809 	-0.0048887052 	-0.01871037 	2.0296691
0.00074371859 	-0.0048887052 	-0.01871037 	2.0296691
0.0007638191 	-0.0051610591 	-0.027832042 	2.0357777
0.0007839196 	0.0082781744 	-0.022103753 	2.0020382
0.0008040201 	0.0082781744 	-0.022103753 	2.0020382
0.0008241206 	0.0082781744 	-0.022103753 	2.0020382
0.00084422111 	0.019169966 	-0.0056298321 	2.0006718
0.00086432161 	0.019169966 	-0.0056298321 	2.0006718
0.00088442211 	0.019169966 	-0.0056298321 	2.0006718
0.00090452261 	0.012066383 	-0.02314763 	1.9965065
0.00092462312 	0.012066383 	-0.02314763 	1.9965065
0.00094472362 	0.019164753 	0.0012979782 	2.0424856
0.00096482412 	0.019164753 	0.0012979782 	2.0424856
0.00098492462 	0.019164753 	0.0012979782 	2.0424856
0.0010050251 	0.020789815 	-0.012721248 	2.0506819
0.0010251256 	0.020789815 	-0.012721248 	2.0506819
0.0010452261 	0.020789815 	-0.012721248 	2.0506819
0.0010653266 	0.034204084 	-0.022355331 	2.0290894
0.0010854271 	0.034204084 	-0.022355331 	2.0290894
0.0011055276 	0.042679111 	-0.042503264 	2.05556
0.0011256281 	0.02161733 	-0.032864073 	2.0475651
0.0011457286 	0.02161733 	-0.032864073 	2.0475651
0.0011658291 	0.040813144 	-0.022892753 	2.0410065
0.0011859296 	0.038466324 	-0.028590007 	2.0730561
0.0012060302 	0.038466324 	-0.028590007 	2.0730561
0.0012261307 	0.038466324 	-0.028590007 	2.0730561
0.0012462312 	0.028742581 	-0.022718869 	2.0646404
0.0012663317 	0.028742581 	-0.022718869 	2.0646404
0.0012864322 	0.028742581 	-0.022718869 	2.0646404
0.0013065327 	0.05682223 	0.00076683741 	2.0074822
0.0013266332 	0.05682223 	0.00076683741 	2.0074822
0.0013467337 	0.05682223 	0.00076683741 	2.0074822
0.0013668342 	0.062725575 	-0.016222549 	1.9694707
0.0013869347 	0.062725575 	-0.016222549 	1.9694707
0.0014070352 	0.062725575 	-0.016222549 	1.9694707
0.0014271357 	0.049328349 	0.0092626769 	1.9868827
0.0014472362 	0.049328349 	0.0092626769 	1.9868827
0.0014673367 	0.049328349 	0.0092626769 	1.9868827
0.0014874372 	0.024801919 	0.055477075 	1.9256254
0.0015075377 	0.024801919 	0.055477075 	1.9256254
0.0015276382 	0.042992924 	-0.02634636 	1.8665908
0.0015477387 	-0.00018140392 	0.030232002 	1.9951865
0.0015678392 	-0.00018140392 	0.030232002 	1.9951865
0.0015879397 	-0.0023816679 	-0.032913702 	2.0157816
0.0016080402 	-0.0023816679 	-0.032913702 	2.0157816
0.0016281407 	-0.0023816679 	-0.032913702 	2.0157816
0.0016482412 	-0.00055545338 	-0.053407054 	2.037221
0.0016683417 	-0.00055545338 	-0.053407054 	2.037221
0.0016884422 	-0.0098726007 	-0.062160617 	1.9346733
0.0017085427 	-0.0098726007 	-0.062160617 	1.9346733
0.0017286432 	-0.0098726007 	-0.062160617 	1.9346733
0.0017487437 	-0.0065862351 	-0.060783723 	1.9131122
0.0017688442 	-0.0065862351 	-0.060783723 	1.9131122
0.0017889447 	-0.0065862351 	-0.060783723 	1.9131122
0.0018090452 	-0.0030882122 	-0.051430897 	1.8849818
0.0018291457 	-0.0030882122 	-0.051430897 	1.8849818
0.0018492462 	0.0050107011 	-0.048851665 	1.8531467
0.0018693467 	0.0050107011 	-0.048851665 	1.8531467
0.0018894472 	0.0050107011 	-0.048851665 	1.8531467
0.0019095477 	0.0082907218 	-0.064039078 	1.8588015
0.0019296482 	0.0082907218 	-0.064039078 	1.8588015
0.0019497487 	0.0064717902 	-0.070269 	1.8670545
0.0019698492 	0.0064717902 	-0.070269 	1.8670545
0.0019899497 	0.0046627963 	-0.047682434 	1.8741647
0.0020100503 	0.0046627963 	-0.047682434 	1.8741647
0.0020301508 	0.0046627963 	-0.047682434 	1.8741647
0.0020502513 	0.0067762694 	-0.0080083579 	1.8491784
0.0020703518 	0.0067762694 	-0.0080083579 	1.8491784
0.0020904523 	-0.013579697 	-0.0071610397 	1.8884337
0.0021105528 	0.012382198 	0.019380615 	1.859295
0.0021306533 	0.012382198 	0.019380615 	1.859295
0.0021507538 	0.010611805 	0.040916253 	1.8578842
0.0021708543 	0.010611805 	0.040916253 	1.8578842
0.0021909548 	0.017116002 	0.030404258 	1.8328572
0.0022110553 	0.017116002 	0.030404258 	1.8328572
0.0022311558 	-0.018840951 	0.021966232 	1.8480477
0.0022512563 	-0.018840951 	0.021966232 	1.8480477
0.0022713568 	-0.035068572 	0.027600231 	1.8590811
0.0022914573 	-0.035068572 	0.027600231 	1.8590811
0.0023115578 	-0.035068572 	0.027600231 	1.8590811
0.0023316583 	-0.039763249 	0.021978062 	1.8384034
0.0023517588 	-0.039763249 	0.021978062 	1.8384034
0.0023718593 	-0.043518886 	0.034654082 	1.8250312
0.0023919598 	-0.043518886 	0.034654082 	1.8250312
0.0024120603 	-0.054520245 	0.03910024 	1.8074811
0.0024321608 	-0.054520245 	0.03910024 	1.8074811
0.0024522613 	-0.049829552 	0.037661086 	1.8111274
0.0024723618 	-0.049829552 	0.037661086 	1.8111274
0.0024924623 	-0.048674678 	0.034636132 	1.8271893
0.0025125628 	-0.048674678 	0.034636132 	1.8271893
0.0025326633 	-0.037090712 	-0.0036932538 	1.7689037
0.0025527638 	-0.037090712 	-0.0036932538 	1.7689037
0.0025728643 	-0.045442051 	-0.033159825 	1.7250201
0.0025929648 	-0.045442051 	-0.033159825 	1.7250201
0.0026130653 	-0.057247118 	-0.034958925 	1.7252473
0.0026331658 	-0.057247118 	-0.034958925 	1.7252473
0.0026532663 	-0.044839087 	-0.022804095 	1.724643
0.0026733668 	-0.044839087 	-0.022804095 	1.724643
0.0026934673 	-0.023183247 	0.0045934415 	1.7565836
0.0027135678 	-0.023183247 	0.0045934415 	1.7565836
0.0027336683 	-0.0069095584 	0.052085238 	1.7698035
0.0027537688 	-0.0069095584 	0.052085238 	1.7698035
0.0027738693 	-0.0029526935 	0.057829953 	1.7467261
0.0027939698 	-0.0029526935 	0.057829953 	1.7467261
0.0028140704 	-0.00086628797 	0.038903192 	1.7119057
0.0028341709 	-0.00086628797 	0.038903192 	1.7119057
0.0028542714 	0.0010867258 	0.016982037 	1.7072501
0.0028743719 	-0.020631394 	0.0080272077 	1.7023843
0.0028944724 	-0.020631394 	0.0080272077 	1.7023843
0.0029145729 	-0.02701404 	-0.0054893396 	1.7063574
0.0029346734 	-0.02701404 	-0.0054893396 	1.7063574
0.0029547739 	-0.03945108 	-0.0051504693 	1.7201296
0.0029748744 	-0.03945108 	-0.0051504693 	1.7201296
0.0029949749 	-0.036474532 	-0.011705402 	1.7507411
0.0030150754 	-0.014757034 	-0.01041974 	1.7576887
0.0030351759 	-0.014757034 	-0.01041974 	1.7576887
0.0030552764 	0.0017742719 	-0.023794978 	1.7340851
0.0030753769 	0.0017742719 	-0.023794978 	1.7340851
0.0030954774 	0.030512003 	-0.040927972 	1.7479134
0.0031155779 	0.046405887 	-0.038454809 	1.735779
0.0031356784 	0.046405887 	-0.038454809 	1.735779
0.0031557789 	0.061083617 	-0.046111989 	1.7599644
0.0031758794 	0.061083617 	-0.046111989 	1.7599644
0.0031959799 	0.06791306 	-0.066344657 	1.7894604
0.0032160804 	0.063792793 	-0.053499786 	1.8030808
0.0032361809 	0.063792793 	-0.053499786 	1.8030808
0.0032562814 	0.06702761 	-0.026466248 	1.8037234
0.0032763819 	0.066373857 	-0.011881516 	1.8085658
0.0032964824 	0.066373857 	-0.011881516 	1.8085658
0.0033165829 	0.058610974 	-0.025280175 	1.7943498
0.0033366834 	0.051689833 	-0.034982897 	1.767364
0.0033567839 	0.051689833 	-0.034982897 	1.767364
0.0033768844 	0.038184376 	-0.042897064 	1.7711266
0.0033969849 	0.030554074 	-0.06979187 	1.7913252
0.0034170854 	0.030554074 	-0.06979187 	1.7913252
0.0034371859 	0.032340939 	-0.068687691 	1.8200183
0.0034572864 	0.04268098 	-0.053206178 	1.7791544
0.0034773869 	0.057593874 	-0.035392321 	1.698992
0.0034974874 	0.057593874 	-0.035392321 	1.698992
0.0035175879 	0.071077857 	0.006769099 	1.6575872
0.0035376884 	0.074161681 	0.02741593 	1.6741465
0.0035577889 	0.076683174 	0.041268748 	1.7381506
0.0035778894 	0.076683174 	0.041268748 	1.7381506
0.0035979899 	0.067893465 	0.11683102 	1.7894981
0.0036180905 	0.051602871 	0.16532253 	1.7675586
0.003638191 	0.039653517 	0.12851328 	1.707687
0.0036582915 	0.039653517 	0.12851328 	1.707687
0.003678392 	0.036873733 	0.076777393 	1.6733483
0.0036984925 	0.02983701 	0.043160727 	1.6609582
0.003718593 	0.020197132 	0.023630373 	1.6396356
0.0037386935 	0.013677231 	0.010927024 	1.6233716
0.003758794 	-0.00067205261 	0.049835033 	1.6137873
0.0037788945 	-0.00067205261 	0.049835033 	1.6137873
0.003798995 	-0.008482168 	0.10196867 	1.5490899
0.0038190955 	0.0075970833 	0.13893732 	1.5214598
0.003839196 	0.026242362 	0.12666695 	1.5327063
0.0038592965 	0.052857696 	0.13843534 	1.5548679
0.003879397 	0.05069889 	0.15665895 	1.5042555
0.0038994975 	0.057247152 	0.24978998 	1.3290867
0.003919598 	0.072947661 	0.3847237 	1.1925171
0.0039396985 	0.0058451764 	0.046761576 	1.3636258
0.003959799 	0.019085785 	-0.25469957 	1.0223531
0.0039798995 	-0.018192875 	-0.078166011 	0.42061292
0.004 	-0.018192875 	-0.078166011 	0.42061292
