0 	0.0070818674 	-0.0013515829 	2.049305
2.0100503e-05 	0.0070818674 	-0.0013515829 	2.049305
4.0201005e-05 	0.0070818674 	-0.0013515829 	2.049305
6.0301508e-05 	0.012317319 	0.004281999 	2.0452562
8.040201e-05 	0.012317319 	0.004281999 	2.0452562
0.00010050251 	0.012317319 	0.004281999 	2.0452562
0.00012060302 	0.012490904 	0.020949869 	2.0558247
0.00014070352 	0.012490904 	0.020949869 	2.0558247
0.00016080402 	0.012490904 	0.020949869 	2.0558247
0.00018090452 	0.0060097218 	0.02765639 	2.049113
0.00020100503 	0.0060097218 	0.02765639 	2.049113
0.00022110553 	0.0060097218 	0.02765639 	2.049113
0.00024120603 	0.0031963048 	0.038885261 	2.0575486
0.00026130653 	0.006102289 	0.044373139 	2.055771
0.00028140704 	-0.0070613576 	0.061400973 	2.0320422
0.00030150754 	-0.0070613576 	0.061400973 	2.0320422
0.00032160804 	-0.0070613576 	0.061400973 	2.0320422
0.00034170854 	-0.026435505 	0.041587537 	2.0397845
0.00036180905 	-0.026435505 	0.041587537 	2.0397845
0.00038190955 	-0.026435505 	0.041587537 	2.0397845
0.00040201005 	-0.03330604 	0.041001063 	1.9999882
0.00042211055 	-0.03330604 	0.041001063 	1.9999882
0.00044221106 	-0.03330604 	0.041001063 	1.9999882
0.00046231156 	-0.038066273 	-0.003702139 	2.0179687
0.00048241206 	-0.038066273 	-0.003702139 	2.0179687
0.00050251256 	-0.038269571 	-0.023303893 	2.0057827
0.00052261307 	-0.038269571 	-0.023303893 	2.0057827
0.00054271357 	-0.038269571 	-0.023303893 	2.0057827
0.00056281407 	-0.043906474 	-0.030167001 	1.9994493
0.00058291457 	-0.043906474 	-0.030167001 	1.9994493
0.00060301508 	-0.043906474 	-0.030167001 	1.9994493
0.00062311558 	-0.047391257 	-0.034619433 	1.995868
0.00064321608 	-0.047391257 	-0.034619433 	1.995868
0.00066331658 	-0.047391257 	-0.034619433 	1.995868
0.00068341709 	-0.04696304 	-0.031832744 	1.9757378
0.00070351759 	-0.04696304 	-0.031832744 	1.9757378
0.00072361809 	-0.037090865 	-0.028725031 	1.9687647
0.00074371859 	-0.037090865 	-0.028725031 	1.9687647
0.0007638191 	-0.037090865 	-0.028725031 	1.9687647
0.0007839196 	-0.037905441 	-0.044683611 	1.9815576
0.0008040201 	-0.037905441 	-0.044683611 	1.9815576
0.0008241206 	-0.037905441 	-0.044683611 	1.9815576
0.00084422111 	-0.033755702 	-0.054732561 	1.9936968
0.00086432161 	-0.033755702 	-0.054732561 	1.9936968
0.00088442211 	-0.033755702 	-0.054732561 	1.9936968
0.00090452261 	-0.025835244 	-0.057688246 	2.0176503
0.00092462312 	-0.025835244 	-0.057688246 	2.0176503
0.00094472362 	-0.01820447 	-0.057102867 	2.0481244
0.00096482412 	-0.01820447 	-0.057102867 	2.0481244
0.00098492462 	-0.01820447 	-0.057102867 	2.0481244
0.0010050251 	0.024327257 	-0.045847114 	1.9927855
0.0010251256 	0.024327257 	-0.045847114 	1.9927855
0.0010452261 	0.024327257 	-0.045847114 	1.9927855
0.0010653266 	0.016407763 	-0.055359138 	2.0070445
0.0010854271 	0.016407763 	-0.055359138 	2.0070445
0.0011055276 	-0.0018277235 	-0.062090794 	2.0663637
0.0011256281 	0.012413353 	-0.048429482 	2.0012267
0.0011457286 	0.012413353 	-0.048429482 	2.0012267
0.0011658291 	0.027348402 	-0.056372771 	2.0071632
0.0011859296 	0.03704636 	-0.037342185 	1.962852
0.0012060302 	0.03704636 	-0.037342185 	1.962852
0.0012261307 	0.03704636 	-0.037342185 	1.962852
0.0012462312 	0.028763894 	-0.013812635 	1.9426034
0.0012663317 	0.028763894 	-0.013812635 	1.9426034
0.0012864322 	0.028763894 	-0.013812635 	1.9426034
0.0013065327 	0.015396147 	-0.01036238 	1.9566837
0.0013266332 	0.015396147 	-0.01036238 	1.9566837
0.0013467337 	0.015396147 	-0.01036238 	1.9566837
0.0013668342 	0.016885604 	-0.01774066 	1.9720044
0.0013869347 	0.016885604 	-0.01774066 	1.9720044
0.0014070352 	0.016885604 	-0.01774066 	1.9720044
0.0014271357 	0.011193292 	-0.040329869 	1.9432987
0.0014472362 	0.011193292 	-0.040329869 	1.9432987
0.0014673367 	0.011193292 	-0.040329869 	1.9432987
0.0014874372 	0.033622867 	-0.047147852 	1.9980128
0.0015075377 	0.033622867 	-0.047147852 	1.9980128
0.0015276382 	0.032901316 	-0.059225719 	1.9964492
0.0015477387 	0.032901316 	-0.059225719 	1.9964492
0.0015678392 	0.032901316 	-0.059225719 	1.9964492
0.0015879397 	0.035651448 	-0.044768235 	1.9416053
0.0016080402 	0.035651448 	-0.044768235 	1.9416053
0.0016281407 	0.035651448 	-0.044768235 	1.9416053
0.0016482412 	0.032387952 	0.00043649562 	1.9053719
0.0016683417 	0.032387952 	0.00043649562 	1.9053719
0.0016884422 	0.017218077 	-0.0091190349 	1.8911115
0.0017085427 	0.017218077 	-0.0091190349 	1.8911115
0.0017286432 	0.017218077 	-0.0091190349 	1.8911115
0.0017487437 	0.018720691 	-0.0040981713 	1.9208584
0.0017688442 	0.018720691 	-0.0040981713 	1.9208584
0.0017889447 	0.018720691 	-0.0040981713 	1.9208584
0.0018090452 	0.026886701 	0.018946526 	2.0237566
0.0018291457 	0.026886701 	0.018946526 	2.0237566
0.0018492462 	0.031885158 	-0.0091042387 	1.8728954
0.0018693467 	0.031885158 	-0.0091042387 	1.8728954
0.0018894472 	0.031885158 	-0.0091042387 	1.8728954
0.0019095477 	0.026177074 	-0.026107116 	1.8015531
0.0019296482 	0.026177074 	-0.026107116 	1.8015531
0.0019497487 	0.001556621 	-0.040001939 	1.8181975
0.0019698492 	0.001556621 	-0.040001939 	1.8181975
0.0019899497 	0.01798518 	-0.039947068 	1.8518285
0.0020100503 	0.01798518 	-0.039947068 	1.8518285
0.0020301508 	0.01798518 	-0.039947068 	1.8518285
0.0020502513 	0.024769184 	-0.025427627 	1.8513801
0.0020703518 	0.024769184 	-0.025427627 	1.8513801
0.0020904523 	0.03891932 	0.012381231 	1.840264
0.0021105528 	0.03891932 	0.012381231 	1.840264
0.0021306533 	0.03891932 	0.012381231 	1.840264
0.0021507538 	0.03944387 	0.027571317 	1.8365422
0.0021708543 	0.03944387 	0.027571317 	1.8365422
0.0021909548 	0.03606434 	0.020276392 	1.8599926
0.0022110553 	0.03606434 	0.020276392 	1.8599926
0.0022311558 	0.038968752 	0.013040332 	1.8848831
0.0022512563 	0.038968752 	0.013040332 	1.8848831
0.0022713568 	0.030836423 	0.0013367227 	1.8781039
0.0022914573 	0.030836423 	0.0013367227 	1.8781039
0.0023115578 	0.030836423 	0.0013367227 	1.8781039
0.0023316583 	0.041897436 	0.014015456 	1.8305284
0.0023517588 	0.041897436 	0.014015456 	1.8305284
0.0023718593 	0.047236572 	0.014280228 	1.8256567
0.0023919598 	0.047236572 	0.014280228 	1.8256567
0.0024120603 	0.049857495 	-0.0042638575 	1.8358507
0.0024321608 	0.049857495 	-0.0042638575 	1.8358507
0.0024522613 	0.052338116 	0.00091470226 	1.8691985
0.0024723618 	0.052338116 	0.00091470226 	1.8691985
0.0024924623 	0.049887583 	-0.008535724 	1.8725981
0.0025125628 	0.049887583 	-0.008535724 	1.8725981
0.0025326633 	0.045554328 	-0.010098915 	1.8490053
0.0025527638 	0.045554328 	-0.010098915 	1.8490053
0.0025728643 	0.036250954 	0.010299451 	1.829645
0.0025929648 	0.036250954 	0.010299451 	1.829645
0.0026130653 	0.015648608 	-0.0052059568 	1.8104336
0.0026331658 	0.015648608 	-0.0052059568 	1.8104336
0.0026532663 	-0.0040223 	-0.016921415 	1.8085881
0.0026733668 	-0.0040223 	-0.016921415 	1.8085881
0.0026934673 	-0.027495726 	-0.029058984 	1.7375175
0.0027135678 	-0.027495726 	-0.029058984 	1.7375175
0.0027336683 	-0.042779412 	-0.012206222 	1.7515034
0.0027537688 	-0.042779412 	-0.012206222 	1.7515034
0.0027738693 	-0.040396794 	0.025105608 	1.7158668
0.0027939698 	-0.040396794 	0.025105608 	1.7158668
0.0028140704 	-0.049471554 	0.043708914 	1.6218362
0.0028341709 	-0.049471554 	0.043708914 	1.6218362
0.0028542714 	-0.050303271 	0.022454734 	1.5974222
0.0028743719 	-0.062535814 	0.026964015 	1.6630547
0.0028944724 	-0.062535814 	0.026964015 	1.6630547
0.0029145729 	-0.065900217 	0.054756193 	1.6654372
0.0029346734 	-0.065900217 	0.054756193 	1.6654372
0.0029547739 	-0.06195675 	0.073656423 	1.6555754
0.0029748744 	-0.06195675 	0.073656423 	1.6555754
0.0029949749 	-0.056049313 	0.080962147 	1.6525106
0.0030150754 	-0.061473998 	0.073061269 	1.6366674
0.0030351759 	-0.061473998 	0.073061269 	1.6366674
0.0030552764 	-0.06908273 	0.048535313 	1.6211228
0.0030753769 	-0.06908273 	0.048535313 	1.6211228
0.0030954774 	-0.073908628 	0.017287518 	1.6160141
0.0031155779 	-0.075261802 	-0.011986032 	1.6303492
0.0031356784 	-0.075261802 	-0.011986032 	1.6303492
0.0031557789 	-0.081086071 	-0.017224908 	1.6932515
0.0031758794 	-0.081086071 	-0.017224908 	1.6932515
0.0031959799 	-0.085147189 	-0.017907762 	1.7291864
0.0032160804 	-0.076489451 	-0.015109344 	1.7175563
0.0032361809 	-0.076489451 	-0.015109344 	1.7175563
0.0032562814 	-0.073212995 	0.024941152 	1.6935426
0.0032763819 	-0.06871745 	0.057014588 	1.6690567
0.0032964824 	-0.06871745 	0.057014588 	1.6690567
0.0033165829 	-0.054437524 	0.046482274 	1.6469861
0.0033366834 	-0.048822608 	0.014645056 	1.6517382
0.0033567839 	-0.048822608 	0.014645056 	1.6517382
0.0033768844 	-0.051107384 	0.0099580606 	1.6622578
0.0033969849 	-0.058736939 	0.0058437641 	1.6553629
0.0034170854 	-0.058736939 	0.0058437641 	1.6553629
0.0034371859 	-0.06750827 	-0.018630293 	1.6016466
0.0034572864 	-0.066580215 	-0.049446755 	1.5460659
0.0034773869 	-0.064806084 	-0.034825523 	1.5388222
0.0034974874 	-0.064806084 	-0.034825523 	1.5388222
0.0035175879 	-0.052657029 	-0.010789747 	1.5534251
0.0035376884 	-0.033864572 	-0.011397896 	1.5685492
0.0035577889 	-0.0092778794 	-0.021941889 	1.6035735
0.0035778894 	-0.0092778794 	-0.021941889 	1.6035735
0.0035979899 	0.020069754 	0.0082328817 	1.6606944
0.0036180905 	0.038887719 	0.083487596 	1.701347
0.003638191 	0.039063957 	0.10251581 	1.7026967
0.0036582915 	0.039063957 	0.10251581 	1.7026967
0.003678392 	0.037846028 	0.061756789 	1.7092006
0.0036984925 	0.040985654 	0.042258842 	1.7304593
0.003718593 	0.045113162 	0.043088005 	1.7309588
0.0037386935 	0.056250152 	0.048238845 	1.7033007
0.003758794 	0.064026341 	0.0053752587 	1.6601051
0.0037788945 	0.064026341 	0.0053752587 	1.6601051
0.003798995 	0.069445805 	-0.041561698 	1.6311643
0.0038190955 	0.069470104 	-0.10756996 	1.5882621
0.003839196 	0.058054346 	-0.004118618 	1.5124314
0.0038592965 	0.062704951 	0.031560516 	1.5870242
0.003879397 	0.05282387 	0.13925738 	1.5664893
0.0038994975 	0.062482561 	0.085377889 	1.3670967
0.003919598 	0.011607915 	-0.090783407 	1.1469566
0.0039396985 	0.034223395 	0.027952568 	1.0747801
0.003959799 	-0.019140675 	-0.060502624 	1.0846516
0.0039798995 	0.026324121 	0.029292856 	0.71238668
0.004 	0.026324121 	0.029292856 	0.71238668
