0 	0.07248007 	-0.018661389 	2.052764
2.0100503e-05 	0.017648095 	0.090965708 	2.0556228
4.0201005e-05 	0.017648095 	0.090965708 	2.0556228
6.0301508e-05 	-0.034740662 	0.079155629 	2.0668765
8.040201e-05 	-0.034740662 	0.079155629 	2.0668765
0.00010050251 	-0.034740662 	0.079155629 	2.0668765
0.00012060302 	-0.04722683 	0.041290808 	2.0605066
0.00014070352 	-0.04722683 	0.041290808 	2.0605066
0.00016080402 	-0.04722683 	0.041290808 	2.0605066
0.00018090452 	-0.036248256 	0.021426329 	2.0602936
0.00020100503 	-0.036248256 	0.021426329 	2.0602936
0.00022110553 	-0.036248256 	0.021426329 	2.0602936
0.00024120603 	-0.026752087 	0.022445851 	2.0871898
0.00026130653 	-0.026752087 	0.022445851 	2.0871898
0.00028140704 	-0.030205344 	0.028750201 	2.0852828
0.00030150754 	-0.030205344 	0.028750201 	2.0852828
0.00032160804 	-0.030205344 	0.028750201 	2.0852828
0.00034170854 	-0.037182302 	0.028881415 	2.0629139
0.00036180905 	-0.037182302 	0.028881415 	2.0629139
0.00038190955 	-0.037182302 	0.028881415 	2.0629139
0.00040201005 	-0.048062243 	0.023678119 	2.0281142
0.00042211055 	-0.048062243 	0.023678119 	2.0281142
0.00044221106 	-0.048062243 	0.023678119 	2.0281142
0.00046231156 	-0.061130995 	0.017781016 	2.004697
0.00048241206 	-0.061130995 	0.017781016 	2.004697
0.00050251256 	-0.058113444 	0.012966507 	2.0219303
0.00052261307 	-0.058113444 	0.012966507 	2.0219303
0.00054271357 	-0.058113444 	0.012966507 	2.0219303
0.00056281407 	-0.0483799 	0.0083018235 	2.0371707
0.00058291457 	-0.0483799 	0.0083018235 	2.0371707
0.00060301508 	-0.0483799 	0.0083018235 	2.0371707
0.00062311558 	-0.044789971 	-0.01229606 	2.0500052
0.00064321608 	-0.044789971 	-0.01229606 	2.0500052
0.00066331658 	-0.044789971 	-0.01229606 	2.0500052
0.00068341709 	-0.031677971 	-0.036625275 	2.0983109
0.00070351759 	-0.031677971 	-0.036625275 	2.0983109
0.00072361809 	-0.026366701 	-0.031990257 	2.0920673
0.00074371859 	-0.026366701 	-0.031990257 	2.0920673
0.0007638191 	-0.026366701 	-0.031990257 	2.0920673
0.0007839196 	-0.0022478177 	-0.0056773381 	2.0832057
0.0008040201 	-0.0022478177 	-0.0056773381 	2.0832057
0.0008241206 	-0.0022478177 	-0.0056773381 	2.0832057
0.00084422111 	0.012475063 	0.017521797 	2.0805824
0.00086432161 	0.012475063 	0.017521797 	2.0805824
0.00088442211 	0.012475063 	0.017521797 	2.0805824
0.00090452261 	0.025638837 	0.025228078 	2.1160595
0.00092462312 	0.025638837 	0.025228078 	2.1160595
0.00094472362 	0.01666131 	0.0045053593 	2.0763116
0.00096482412 	0.01666131 	0.0045053593 	2.0763116
0.00098492462 	0.01666131 	0.0045053593 	2.0763116
0.0010050251 	-0.00085390085 	0.020846545 	2.053641
0.0010251256 	-0.00085390085 	0.020846545 	2.053641
0.0010452261 	-0.00085390085 	0.020846545 	2.053641
0.0010653266 	0.024468327 	0.01375826 	2.0685069
0.0010854271 	0.024468327 	0.01375826 	2.0685069
0.0011055276 	0.024468327 	0.01375826 	2.0685069
0.0011256281 	0.016453398 	-0.0060987123 	2.0359241
0.0011457286 	0.016453398 	-0.0060987123 	2.0359241
0.0011658291 	0.016453398 	-0.0060987123 	2.0359241
0.0011859296 	0.029116351 	-0.042908204 	2.007582
0.0012060302 	0.029116351 	-0.042908204 	2.007582
0.0012261307 	0.029116351 	-0.042908204 	2.007582
0.0012462312 	0.023494993 	-0.053767355 	2.0232548
0.0012663317 	0.023494993 	-0.053767355 	2.0232548
0.0012864322 	0.023494993 	-0.053767355 	2.0232548
0.0013065327 	0.010919313 	-0.031652465 	2.0601411
0.0013266332 	0.010919313 	-0.031652465 	2.0601411
0.0013467337 	0.010919313 	-0.031652465 	2.0601411
0.0013668342 	0.012592228 	-0.035066299 	2.0223616
0.0013869347 	0.012592228 	-0.035066299 	2.0223616
0.0014070352 	0.012592228 	-0.035066299 	2.0223616
0.0014271357 	0.013397794 	0.0079202402 	2.0019438
0.0014472362 	0.013397794 	0.0079202402 	2.0019438
0.0014673367 	0.013397794 	0.0079202402 	2.0019438
0.0014874372 	-0.017960794 	0.0032902251 	1.9569463
0.0015075377 	-0.017960794 	0.0032902251 	1.9569463
0.0015276382 	-0.032780859 	0.011556448 	1.9729574
0.0015477387 	-0.032780859 	0.011556448 	1.9729574
0.0015678392 	-0.032780859 	0.011556448 	1.9729574
0.0015879397 	-0.04089589 	0.011606987 	2.0095298
0.0016080402 	-0.04089589 	0.011606987 	2.0095298
0.0016281407 	-0.04089589 	0.011606987 	2.0095298
0.0016482412 	-0.039422308 	-0.024627212 	1.9694164
0.0016683417 	-0.039422308 	-0.024627212 	1.9694164
0.0016884422 	-0.042823548 	-0.046351932 	1.9350334
0.0017085427 	-0.042823548 	-0.046351932 	1.9350334
0.0017286432 	-0.042823548 	-0.046351932 	1.9350334
0.0017487437 	-0.039878618 	-0.05325458 	1.9476713
0.0017688442 	-0.039878618 	-0.05325458 	1.9476713
0.0017889447 	-0.039878618 	-0.05325458 	1.9476713
0.0018090452 	-0.033733077 	-0.053755288 	1.9734927
0.0018291457 	-0.033733077 	-0.053755288 	1.9734927
0.0018492462 	-0.020566703 	-0.049242653 	1.9653332
0.0018693467 	-0.020566703 	-0.049242653 	1.9653332
0.0018894472 	-0.020566703 	-0.049242653 	1.9653332
0.0019095477 	-0.020163651 	-0.049349443 	1.9210611
0.0019296482 	-0.020163651 	-0.049349443 	1.9210611
0.0019497487 	-0.016294412 	-0.045341016 	1.9253968
0.0019698492 	-0.016294412 	-0.045341016 	1.9253968
0.0019899497 	-0.016294412 	-0.045341016 	1.9253968
0.0020100503 	-0.015117628 	-0.039081571 	1.9343847
0.0020301508 	-0.015117628 	-0.039081571 	1.9343847
0.0020502513 	-0.0062746458 	-0.013673802 	1.9629776
0.0020703518 	-0.0062746458 	-0.013673802 	1.9629776
0.0020904523 	0.019700813 	0.008863783 	1.9589176
0.0021105528 	0.019700813 	0.008863783 	1.9589176
0.0021306533 	0.019700813 	0.008863783 	1.9589176
0.0021507538 	0.019819669 	0.02051463 	1.9241639
0.0021708543 	0.019819669 	0.02051463 	1.9241639
0.0021909548 	0.028698571 	-0.040378269 	1.8969116
0.0022110553 	0.028698571 	-0.040378269 	1.8969116
0.0022311558 	0.024985537 	-0.061829381 	1.9077096
0.0022512563 	0.024985537 	-0.061829381 	1.9077096
0.0022713568 	0.032292127 	-0.054126645 	1.919725
0.0022914573 	0.032292127 	-0.054126645 	1.919725
0.0023115578 	0.032292127 	-0.054126645 	1.919725
0.0023316583 	0.03168801 	-0.046704647 	1.9368938
0.0023517588 	0.03168801 	-0.046704647 	1.9368938
0.0023718593 	0.038770829 	-0.025732853 	1.944757
0.0023919598 	0.038770829 	-0.025732853 	1.944757
0.0024120603 	0.038110907 	-0.0099041654 	1.9649604
0.0024321608 	0.038110907 	-0.0099041654 	1.9649604
0.0024522613 	0.026532643 	-0.0025992235 	1.9378884
0.0024723618 	0.026532643 	-0.0025992235 	1.9378884
0.0024924623 	0.017196742 	0.0070416846 	1.946857
0.0025125628 	0.017196742 	0.0070416846 	1.946857
0.0025326633 	-0.0031089977 	0.015752456 	1.9450305
0.0025527638 	-0.0031089977 	0.015752456 	1.9450305
0.0025728643 	-0.0080057777 	-0.020865332 	1.8686544
0.0025929648 	-0.0080057777 	-0.020865332 	1.8686544
0.0026130653 	-0.027820659 	-0.03393842 	1.8719254
0.0026331658 	-0.027820659 	-0.03393842 	1.8719254
0.0026532663 	-0.036365668 	-0.0037973013 	1.902185
0.0026733668 	-0.036365668 	-0.0037973013 	1.902185
0.0026934673 	-0.029702848 	0.035221906 	1.9179569
0.0027135678 	-0.029702848 	0.035221906 	1.9179569
0.0027336683 	-0.024020976 	0.067903553 	1.9206054
0.0027537688 	-0.024020976 	0.067903553 	1.9206054
0.0027738693 	-0.01774124 	0.056683754 	1.907118
0.0027939698 	-0.01774124 	0.056683754 	1.907118
0.0028140704 	-0.0086391727 	0.018182835 	1.9121142
0.0028341709 	-0.0086391727 	0.018182835 	1.9121142
0.0028542714 	-0.011068135 	0.023100331 	1.9144602
0.0028743719 	0.0095809835 	0.032568103 	1.8849605
0.0028944724 	0.0095809835 	0.032568103 	1.8849605
0.0029145729 	0.030216952 	0.018342454 	1.8946204
0.0029346734 	0.030216952 	0.018342454 	1.8946204
0.0029547739 	0.052703955 	0.020129935 	1.8542606
0.0029748744 	0.052703955 	0.020129935 	1.8542606
0.0029949749 	0.081246655 	0.011159459 	1.8216233
0.0030150754 	0.07819647 	0.018293833 	1.8509979
0.0030351759 	0.07819647 	0.018293833 	1.8509979
0.0030552764 	0.062497027 	0.020029582 	1.8807214
0.0030753769 	0.062497027 	0.020029582 	1.8807214
0.0030954774 	0.0746947 	-0.002376006 	1.8878843
0.0031155779 	0.067913511 	-0.011317912 	1.8913926
0.0031356784 	0.067913511 	-0.011317912 	1.8913926
0.0031557789 	0.073840381 	-0.020231847 	1.9189187
0.0031758794 	0.073840381 	-0.020231847 	1.9189187
0.0031959799 	0.08047589 	-0.024384691 	1.9313264
0.0032160804 	0.089676281 	-0.035579338 	1.9133918
0.0032361809 	0.089676281 	-0.035579338 	1.9133918
0.0032562814 	0.090491532 	-0.060198424 	1.8965797
0.0032763819 	0.089984117 	-0.087017334 	1.8888569
0.0032964824 	0.089984117 	-0.087017334 	1.8888569
0.0033165829 	0.086289598 	-0.086373002 	1.8879175
0.0033366834 	0.080228517 	-0.11590913 	1.9164362
0.0033567839 	0.080228517 	-0.11590913 	1.9164362
0.0033768844 	0.079620113 	-0.14066892 	1.9385263
0.0033969849 	0.076674049 	-0.12179287 	1.8757876
0.0034170854 	0.076674049 	-0.12179287 	1.8757876
0.0034371859 	0.079669719 	-0.06875658 	1.8688355
0.0034572864 	0.064232439 	-0.038325912 	1.8897251
0.0034773869 	0.066798985 	-0.041190009 	1.8395535
0.0034974874 	0.066798985 	-0.041190009 	1.8395535
0.0035175879 	0.072777078 	-0.084285704 	1.7735847
0.0035376884 	0.062022479 	-0.083098578 	1.8327616
0.0035577889 	0.054204808 	-0.11529181 	1.8297762
0.0035778894 	0.054204808 	-0.11529181 	1.8297762
0.0035979899 	0.077483614 	-0.11672652 	1.7602372
0.0036180905 	0.077765565 	-0.12256732 	1.7419701
0.003638191 	0.088856881 	-0.10503039 	1.7342434
0.0036582915 	0.088856881 	-0.10503039 	1.7342434
0.003678392 	0.1159174 	-0.087515354 	1.690671
0.0036984925 	0.1291632 	-0.049623062 	1.6546102
0.003718593 	0.1366656 	0.034680977 	1.6191494
0.0037386935 	0.1260304 	0.08119083 	1.6118029
0.003758794 	0.10726643 	0.058285281 	1.6960391
0.0037788945 	0.10726643 	0.058285281 	1.6960391
0.003798995 	0.086663502 	-0.036052715 	1.7945571
0.0038190955 	0.06388538 	0.051235887 	1.9008988
0.003839196 	0.060084629 	-0.024710081 	1.820359
0.0038592965 	0.021283456 	0.055329094 	1.8757575
0.003879397 	0.0085392989 	0.014259446 	1.7124302
0.0038994975 	0.0042765461 	-0.046466531 	1.4656967
0.003919598 	0.0078340034 	-0.0072841506 	1.4370907
0.0039396985 	0.042255823 	0.015914223 	1.3873888
0.003959799 	0.050841608 	0.089355888 	1.4517446
0.0039798995 	0.017502496 	0.30822242 	0.91645507
0.004 	0.017502496 	0.30822242 	0.91645507
