0 	0.037058573 	0.017279611 	2.0770569
2.0100503e-05 	0.037058573 	0.017279611 	2.0770569
4.0201005e-05 	0.037058573 	0.017279611 	2.0770569
6.0301508e-05 	0.028578266 	0.035895521 	2.0867287
8.040201e-05 	0.028578266 	0.035895521 	2.0867287
0.00010050251 	0.028578266 	0.035895521 	2.0867287
0.00012060302 	0.024341108 	0.036306777 	2.0857623
0.00014070352 	0.024341108 	0.036306777 	2.0857623
0.00016080402 	0.024341108 	0.036306777 	2.0857623
0.00018090452 	0.021738331 	0.034340559 	2.0960319
0.00020100503 	0.021738331 	0.034340559 	2.0960319
0.00022110553 	0.00013530908 	0.030066321 	2.0734899
0.00024120603 	-0.004753414 	0.017988219 	2.0641787
0.00026130653 	-0.004753414 	0.017988219 	2.0641787
0.00028140704 	-0.012172029 	-0.0011228149 	2.0472388
0.00030150754 	-0.012172029 	-0.0011228149 	2.0472388
0.00032160804 	-0.012172029 	-0.0011228149 	2.0472388
0.00034170854 	-0.012786137 	-0.011713173 	2.031485
0.00036180905 	-0.012786137 	-0.011713173 	2.031485
0.00038190955 	-0.012786137 	-0.011713173 	2.031485
0.00040201005 	-0.0058736816 	-0.019161549 	2.029629
0.00042211055 	-0.0058736816 	-0.019161549 	2.029629
0.00044221106 	-0.0058736816 	-0.019161549 	2.029629
0.00046231156 	-0.0093894014 	-0.017218379 	2.0304586
0.00048241206 	-0.0093894014 	-0.017218379 	2.0304586
0.00050251256 	-0.0083582132 	-0.014213365 	2.0152187
0.00052261307 	-0.0083582132 	-0.014213365 	2.0152187
0.00054271357 	-0.0083582132 	-0.014213365 	2.0152187
0.00056281407 	-0.0018447893 	-0.0051211114 	2.0078793
0.00058291457 	-0.0018447893 	-0.0051211114 	2.0078793
0.00060301508 	-0.0018447893 	-0.0051211114 	2.0078793
0.00062311558 	0.0017535675 	-0.0069662321 	2.0009911
0.00064321608 	0.0017535675 	-0.0069662321 	2.0009911
0.00066331658 	0.0017535675 	-0.0069662321 	2.0009911
0.00068341709 	0.0029916715 	-0.010971499 	1.9813379
0.00070351759 	0.0029916715 	-0.010971499 	1.9813379
0.00072361809 	0.0049838067 	-0.011577247 	1.9895673
0.00074371859 	0.0049838067 	-0.011577247 	1.9895673
0.0007638191 	0.0049838067 	-0.011577247 	1.9895673
0.0007839196 	0.0046388099 	-0.0089375291 	2.0133974
0.0008040201 	0.0046388099 	-0.0089375291 	2.0133974
0.0008241206 	0.0046388099 	-0.0089375291 	2.0133974
0.00084422111 	0.0019678175 	0.0024810461 	2.0360178
0.00086432161 	0.0019678175 	0.0024810461 	2.0360178
0.00088442211 	0.0019678175 	0.0024810461 	2.0360178
0.00090452261 	0.0046019934 	0.0051678074 	2.0468358
0.00092462312 	0.0046019934 	0.0051678074 	2.0468358
0.00094472362 	0.0063781231 	0.013650382 	2.0419574
0.00096482412 	0.0063781231 	0.013650382 	2.0419574
0.00098492462 	0.0063781231 	0.013650382 	2.0419574
0.0010050251 	0.015142777 	-0.014661647 	2.0373627
0.0010251256 	0.015142777 	-0.014661647 	2.0373627
0.0010452261 	0.015142777 	-0.014661647 	2.0373627
0.0010653266 	0.0076444863 	-0.016638085 	2.0204149
0.0010854271 	0.0076444863 	-0.016638085 	2.0204149
0.0011055276 	0.0076444863 	-0.016638085 	2.0204149
0.0011256281 	0.012295526 	-0.015903308 	2.0263572
0.0011457286 	0.012295526 	-0.015903308 	2.0263572
0.0011658291 	0.012295526 	-0.015903308 	2.0263572
0.0011859296 	0.017964016 	-0.025831619 	2.0220542
0.0012060302 	0.017964016 	-0.025831619 	2.0220542
0.0012261307 	0.017964016 	-0.025831619 	2.0220542
0.0012462312 	0.031370978 	-0.021866869 	2.0184156
0.0012663317 	0.031370978 	-0.021866869 	2.0184156
0.0012864322 	0.031370978 	-0.021866869 	2.0184156
0.0013065327 	0.026900778 	-0.010692797 	2.0081776
0.0013266332 	0.026900778 	-0.010692797 	2.0081776
0.0013467337 	0.026900778 	-0.010692797 	2.0081776
0.0013668342 	0.034470518 	0.0016390212 	2.0103071
0.0013869347 	0.034470518 	0.0016390212 	2.0103071
0.0014070352 	0.034470518 	0.0016390212 	2.0103071
0.0014271357 	0.035479307 	-0.0061390162 	2.0267777
0.0014472362 	0.035479307 	-0.0061390162 	2.0267777
0.0014673367 	0.035479307 	-0.0061390162 	2.0267777
0.0014874372 	0.047472315 	-0.0011113251 	2.03026
0.0015075377 	0.047472315 	-0.0011113251 	2.03026
0.0015276382 	0.035991034 	0.016876644 	1.997584
0.0015477387 	0.035991034 	0.016876644 	1.997584
0.0015678392 	0.035991034 	0.016876644 	1.997584
0.0015879397 	0.044445774 	0.015193942 	1.9916339
0.0016080402 	0.044445774 	0.015193942 	1.9916339
0.0016281407 	0.044445774 	0.015193942 	1.9916339
0.0016482412 	0.049744264 	0.0013404695 	2.0075471
0.0016683417 	0.049744264 	0.0013404695 	2.0075471
0.0016884422 	0.047065572 	-0.010382211 	2.0233366
0.0017085427 	0.047065572 	-0.010382211 	2.0233366
0.0017286432 	0.047065572 	-0.010382211 	2.0233366
0.0017487437 	0.05102079 	-0.0048659248 	2.0067611
0.0017688442 	0.05102079 	-0.0048659248 	2.0067611
0.0017889447 	0.05102079 	-0.0048659248 	2.0067611
0.0018090452 	0.035869436 	-0.025080647 	1.9863686
0.0018291457 	0.035869436 	-0.025080647 	1.9863686
0.0018492462 	0.03907687 	-0.023012844 	1.9958875
0.0018693467 	0.03907687 	-0.023012844 	1.9958875
0.0018894472 	0.03907687 	-0.023012844 	1.9958875
0.0019095477 	0.042656186 	-0.053221851 	2.0155989
0.0019296482 	0.042656186 	-0.053221851 	2.0155989
0.0019497487 	0.054377971 	-0.047603658 	1.9968512
0.0019698492 	0.054377971 	-0.047603658 	1.9968512
0.0019899497 	0.062937975 	-0.043794639 	2.0001164
0.0020100503 	0.062937975 	-0.043794639 	2.0001164
0.0020301508 	0.062937975 	-0.043794639 	2.0001164
0.0020502513 	0.053810742 	-0.034361923 	1.9882975
0.0020703518 	0.053810742 	-0.034361923 	1.9882975
0.0020904523 	0.054627931 	-0.025786576 	2.0203981
0.0021105528 	0.054627931 	-0.025786576 	2.0203981
0.0021306533 	0.054627931 	-0.025786576 	2.0203981
0.0021507538 	0.043747589 	-0.00093446209 	2.0236928
0.0021708543 	0.043747589 	-0.00093446209 	2.0236928
0.0021909548 	0.048085795 	0.018068656 	1.9791012
0.0022110553 	0.048085795 	0.018068656 	1.9791012
0.0022311558 	0.056796785 	1.0223524e-05 	1.9784823
0.0022512563 	0.056796785 	1.0223524e-05 	1.9784823
0.0022713568 	0.027279723 	0.012787625 	1.9572047
0.0022914573 	0.027279723 	0.012787625 	1.9572047
0.0023115578 	0.027279723 	0.012787625 	1.9572047
0.0023316583 	0.024638089 	0.019791675 	1.9418568
0.0023517588 	0.024638089 	0.019791675 	1.9418568
0.0023718593 	0.0029842347 	-0.0064737341 	1.8999647
0.0023919598 	0.0029842347 	-0.0064737341 	1.8999647
0.0024120603 	-0.01516271 	0.039937795 	1.87482
0.0024321608 	-0.01516271 	0.039937795 	1.87482
0.0024522613 	-0.023046111 	0.092988839 	1.8413777
0.0024723618 	-0.023046111 	0.092988839 	1.8413777
0.0024924623 	-0.016026222 	0.069205145 	1.8404707
0.0025125628 	-0.016026222 	0.069205145 	1.8404707
0.0025326633 	-0.011110392 	0.066433908 	1.855543
0.0025527638 	-0.011110392 	0.066433908 	1.855543
0.0025728643 	-0.008560027 	0.065889574 	1.8397893
0.0025929648 	-0.008560027 	0.065889574 	1.8397893
0.0026130653 	-0.00075878561 	0.078948305 	1.8734558
0.0026331658 	-0.00075878561 	0.078948305 	1.8734558
0.0026532663 	-0.019167109 	0.069604317 	1.9363121
0.0026733668 	-0.019167109 	0.069604317 	1.9363121
0.0026934673 	-0.019867614 	0.04796038 	1.9193696
0.0027135678 	-0.019867614 	0.04796038 	1.9193696
0.0027336683 	-0.016929682 	0.053407558 	1.9283895
0.0027537688 	-0.016929682 	0.053407558 	1.9283895
0.0027738693 	-0.024642525 	0.061820539 	1.9433738
0.0027939698 	-0.024642525 	0.061820539 	1.9433738
0.0028140704 	-0.032001534 	0.066908314 	1.9664687
0.0028341709 	-0.032001534 	0.066908314 	1.9664687
0.0028542714 	-0.029370125 	0.032049949 	1.9598853
0.0028743719 	-0.032255228 	-0.0023642334 	1.9060778
0.0028944724 	-0.032255228 	-0.0023642334 	1.9060778
0.0029145729 	-0.036641088 	0.0045001575 	1.8434595
0.0029346734 	-0.036641088 	0.0045001575 	1.8434595
0.0029547739 	-0.035845608 	0.01334136 	1.8647045
0.0029748744 	-0.035845608 	0.01334136 	1.8647045
0.0029949749 	-0.038078973 	-0.017988407 	1.8688923
0.0030150754 	-0.03913671 	-0.054347205 	1.8230661
0.0030351759 	-0.03913671 	-0.054347205 	1.8230661
0.0030552764 	-0.03103449 	-0.079937288 	1.7989347
0.0030753769 	-0.03103449 	-0.079937288 	1.7989347
0.0030954774 	-0.022779295 	-0.043842251 	1.7800664
0.0031155779 	-0.02031268 	-0.038726023 	1.8019994
0.0031356784 	-0.02031268 	-0.038726023 	1.8019994
0.0031557789 	-0.016002178 	-0.02464041 	1.7680376
0.0031758794 	-0.016002178 	-0.02464041 	1.7680376
0.0031959799 	-0.010095163 	0.063317735 	1.6534376
0.0032160804 	-0.014606385 	0.094554788 	1.5683526
0.0032361809 	-0.014606385 	0.094554788 	1.5683526
0.0032562814 	-0.04118633 	-0.028378183 	1.5498808
0.0032763819 	-0.046120717 	-0.089020545 	1.5785321
0.0032964824 	-0.046120717 	-0.089020545 	1.5785321
0.0033165829 	-0.052692903 	0.004469509 	1.6205955
0.0033366834 	-0.047516946 	0.042439767 	1.6914798
0.0033567839 	-0.047516946 	0.042439767 	1.6914798
0.0033768844 	-0.037819413 	0.077067415 	1.7724633
0.0033969849 	-0.041861963 	0.13595746 	1.8279891
0.0034170854 	-0.041861963 	0.13595746 	1.8279891
0.0034371859 	-0.03544363 	0.13851847 	1.8026353
0.0034572864 	-0.040694122 	0.068656981 	1.7464199
0.0034773869 	-0.032100307 	0.039573317 	1.747148
0.0034974874 	-0.032100307 	0.039573317 	1.747148
0.0035175879 	-0.016172437 	0.014572675 	1.7576695
0.0035376884 	-0.015566309 	-0.014477539 	1.8172962
0.0035577889 	-0.013044168 	-0.026323797 	1.8756992
0.0035778894 	-0.013044168 	-0.026323797 	1.8756992
0.0035979899 	-0.020258783 	-0.03578197 	1.9120762
0.0036180905 	-0.037687248 	-0.044769013 	1.9145429
0.003638191 	-0.057013788 	-0.0850454 	1.8702519
0.0036582915 	-0.057013788 	-0.0850454 	1.8702519
0.003678392 	-0.061638129 	-0.12614226 	1.8233553
0.0036984925 	-0.044330765 	-0.12653062 	1.8619638
0.003718593 	-0.027946035 	-0.091515943 	1.909062
0.0037386935 	-0.025582311 	-0.056021072 	1.9043116
0.003758794 	-0.023608562 	-0.047264704 	1.8555173
0.0037788945 	-0.023608562 	-0.047264704 	1.8555173
0.003798995 	-0.04405947 	-0.06554674 	1.825338
0.0038190955 	-0.058610313 	-0.074016533 	1.7832102
0.003839196 	-0.063875695 	-0.068200741 	1.6815318
0.0038592965 	-0.061174101 	-0.1122026 	1.6331443
0.003879397 	-0.068925788 	-0.1904143 	1.6514161
0.0038994975 	-0.057358932 	-0.17384909 	1.5263081
0.003919598 	-0.063897897 	-0.098570367 	1.3686891
0.0039396985 	-0.065669104 	-0.013779992 	0.9637248
0.003959799 	-0.010830121 	-0.14951223 	0.82939344
0.0039798995 	-0.021936379 	0.10381599 	0.45722973
0.004 	-0.021936379 	0.10381599 	0.45722973
