0 	-0.048421359 	0.0029504023 	2.0277881
2.0100503e-05 	-0.048421359 	0.0029504023 	2.0277881
4.0201005e-05 	-0.048421359 	0.0029504023 	2.0277881
6.0301508e-05 	-0.044477148 	-0.0232307 	2.026715
8.040201e-05 	-0.044477148 	-0.0232307 	2.026715
0.00010050251 	-0.044477148 	-0.0232307 	2.026715
0.00012060302 	-0.030072125 	-0.015686964 	2.0096818
0.00014070352 	-0.030072125 	-0.015686964 	2.0096818
0.00016080402 	-0.030072125 	-0.015686964 	2.0096818
0.00018090452 	-0.022531676 	0.013158329 	1.9930712
0.00020100503 	-0.022531676 	0.013158329 	1.9930712
0.00022110553 	-0.015828752 	-0.0038589633 	1.9970324
0.00024120603 	-0.032831044 	0.006923066 	1.9974796
0.00026130653 	-0.032831044 	0.006923066 	1.9974796
0.00028140704 	-0.049192889 	0.0074093979 	2.0184524
0.00030150754 	-0.049192889 	0.0074093979 	2.0184524
0.00032160804 	-0.049192889 	0.0074093979 	2.0184524
0.00034170854 	-0.052721475 	-0.024671721 	1.9959365
0.00036180905 	-0.052721475 	-0.024671721 	1.9959365
0.00038190955 	-0.052721475 	-0.024671721 	1.9959365
0.00040201005 	-0.051164338 	-0.02209311 	1.9944285
0.00042211055 	-0.051164338 	-0.02209311 	1.9944285
0.00044221106 	-0.051164338 	-0.02209311 	1.9944285
0.00046231156 	-0.053712322 	-0.015002097 	1.9701142
0.00048241206 	-0.053712322 	-0.015002097 	1.9701142
0.00050251256 	-0.055551701 	-0.0085653997 	1.9587496
0.00052261307 	-0.055551701 	-0.0085653997 	1.9587496
0.00054271357 	-0.055551701 	-0.0085653997 	1.9587496
0.00056281407 	-0.05242739 	0.0032457118 	1.9626274
0.00058291457 	-0.05242739 	0.0032457118 	1.9626274
0.00060301508 	-0.05242739 	0.0032457118 	1.9626274
0.00062311558 	-0.044546069 	0.013448561 	1.9921081
0.00064321608 	-0.044546069 	0.013448561 	1.9921081
0.00066331658 	-0.044546069 	0.013448561 	1.9921081
0.00068341709 	-0.023990559 	0.012538176 	2.0106354
0.00070351759 	-0.023990559 	0.012538176 	2.0106354
0.00072361809 	-0.049305613 	0.0090668587 	1.9815309
0.00074371859 	-0.049305613 	0.0090668587 	1.9815309
0.0007638191 	-0.049305613 	0.0090668587 	1.9815309
0.0007839196 	-0.03227622 	0.013865169 	1.9917899
0.0008040201 	-0.03227622 	0.013865169 	1.9917899
0.0008241206 	-0.03227622 	0.013865169 	1.9917899
0.00084422111 	-0.0262644 	0.019897338 	2.0129916
0.00086432161 	-0.0262644 	0.019897338 	2.0129916
0.00088442211 	-0.022370836 	0.020612096 	2.0363473
0.00090452261 	-0.011768941 	0.031959746 	2.0547355
0.00092462312 	-0.011768941 	0.031959746 	2.0547355
0.00094472362 	-0.027936113 	0.043848301 	2.0311397
0.00096482412 	-0.027936113 	0.043848301 	2.0311397
0.00098492462 	-0.027936113 	0.043848301 	2.0311397
0.0010050251 	-0.0091630199 	0.052101236 	2.0386347
0.0010251256 	-0.0091630199 	0.052101236 	2.0386347
0.0010452261 	-0.0091630199 	0.052101236 	2.0386347
0.0010653266 	-0.0013313822 	0.038869552 	2.0311365
0.0010854271 	-0.0013313822 	0.038869552 	2.0311365
0.0011055276 	-0.0013313822 	0.038869552 	2.0311365
0.0011256281 	0.007815156 	0.019170651 	2.0137589
0.0011457286 	0.007815156 	0.019170651 	2.0137589
0.0011658291 	0.007815156 	0.019170651 	2.0137589
0.0011859296 	0.014654923 	0.0041765821 	2.0156317
0.0012060302 	0.014654923 	0.0041765821 	2.0156317
0.0012261307 	0.014654923 	0.0041765821 	2.0156317
0.0012462312 	0.022375155 	-0.0056261806 	2.0398847
0.0012663317 	0.022375155 	-0.0056261806 	2.0398847
0.0012864322 	0.022375155 	-0.0056261806 	2.0398847
0.0013065327 	0.024717667 	-0.0032007576 	2.0271427
0.0013266332 	0.024717667 	-0.0032007576 	2.0271427
0.0013467337 	0.024717667 	-0.0032007576 	2.0271427
0.0013668342 	0.012260637 	-0.019432552 	2.0075922
0.0013869347 	0.012260637 	-0.019432552 	2.0075922
0.0014070352 	0.012260637 	-0.019432552 	2.0075922
0.0014271357 	0.036508442 	-0.016641337 	2.0552544
0.0014472362 	0.036508442 	-0.016641337 	2.0552544
0.0014673367 	0.036508442 	-0.016641337 	2.0552544
0.0014874372 	0.046902362 	-0.00742748 	2.0396652
0.0015075377 	0.046902362 	-0.00742748 	2.0396652
0.0015276382 	0.03910223 	-0.026760178 	2.0333159
0.0015477387 	0.03910223 	-0.026760178 	2.0333159
0.0015678392 	0.03910223 	-0.026760178 	2.0333159
0.0015879397 	0.02215806 	-0.012425956 	1.9519309
0.0016080402 	0.02215806 	-0.012425956 	1.9519309
0.0016281407 	0.02215806 	-0.012425956 	1.9519309
0.0016482412 	0.021958766 	-0.017218493 	2.0301558
0.0016683417 	0.021958766 	-0.017218493 	2.0301558
0.0016884422 	0.03543693 	-0.054893824 	2.109101
0.0017085427 	0.03543693 	-0.054893824 	2.109101
0.0017286432 	0.03543693 	-0.054893824 	2.109101
0.0017487437 	0.034632248 	-0.052418697 	1.9813765
0.0017688442 	0.034632248 	-0.052418697 	1.9813765
0.0017889447 	0.034632248 	-0.052418697 	1.9813765
0.0018090452 	0.011226063 	-0.0073245719 	1.8229434
0.0018291457 	0.011226063 	-0.0073245719 	1.8229434
0.0018492462 	-0.026292531 	0.037722366 	1.8641259
0.0018693467 	-0.026292531 	0.037722366 	1.8641259
0.0018894472 	-0.026292531 	0.037722366 	1.8641259
0.0019095477 	-0.061542958 	0.0024378812 	1.8469364
0.0019296482 	-0.061542958 	0.0024378812 	1.8469364
0.0019497487 	-0.052562967 	0.014038895 	1.8126549
0.0019698492 	-0.052562967 	0.014038895 	1.8126549
0.0019899497 	-0.046730454 	0.017249708 	1.8780809
0.0020100503 	-0.046730454 	0.017249708 	1.8780809
0.0020301508 	-0.046730454 	0.017249708 	1.8780809
0.0020502513 	-0.030937501 	0.02191648 	1.8350436
0.0020703518 	-0.030937501 	0.02191648 	1.8350436
0.0020904523 	-0.026890565 	0.026255138 	1.8816547
0.0021105528 	-0.026890565 	0.026255138 	1.8816547
0.0021306533 	-0.026890565 	0.026255138 	1.8816547
0.0021507538 	-0.03181671 	0.014987762 	1.9967444
0.0021708543 	-0.03181671 	0.014987762 	1.9967444
0.0021909548 	-0.034759478 	0.0015746053 	1.925527
0.0022110553 	-0.034759478 	0.0015746053 	1.925527
0.0022311558 	-0.041258595 	-0.03777467 	1.8455067
0.0022512563 	-0.041258595 	-0.03777467 	1.8455067
0.0022713568 	-0.041811326 	-0.049949595 	1.8016334
0.0022914573 	-0.041811326 	-0.049949595 	1.8016334
0.0023115578 	-0.041811326 	-0.049949595 	1.8016334
0.0023316583 	-0.049588772 	-0.056910407 	1.7791961
0.0023517588 	-0.049588772 	-0.056910407 	1.7791961
0.0023718593 	-0.033038637 	-0.061591615 	1.8521182
0.0023919598 	-0.033038637 	-0.061591615 	1.8521182
0.0024120603 	-0.02563438 	-0.048910785 	1.8598042
0.0024321608 	-0.02563438 	-0.048910785 	1.8598042
0.0024522613 	-0.01478468 	-0.04142911 	1.8119367
0.0024723618 	-0.01478468 	-0.04142911 	1.8119367
0.0024924623 	-0.00061377546 	-0.021277704 	1.8029516
0.0025125628 	-0.00061377546 	-0.021277704 	1.8029516
0.0025326633 	0.016175722 	-0.015304222 	1.7895551
0.0025527638 	0.016175722 	-0.015304222 	1.7895551
0.0025728643 	0.015667704 	-0.0037555086 	1.7508324
0.0025929648 	0.015667704 	-0.0037555086 	1.7508324
0.0026130653 	0.023750045 	-0.024532767 	1.6876564
0.0026331658 	0.023750045 	-0.024532767 	1.6876564
0.0026532663 	-0.010268717 	-0.061064106 	1.6887478
0.0026733668 	-0.010268717 	-0.061064106 	1.6887478
0.0026934673 	-0.012235866 	-0.025697416 	1.7346639
0.0027135678 	-0.012235866 	-0.025697416 	1.7346639
0.0027336683 	-0.022254644 	0.014704742 	1.6721293
0.0027537688 	-0.022254644 	0.014704742 	1.6721293
0.0027738693 	-0.028209352 	0.027890902 	1.6657574
0.0027939698 	-0.028209352 	0.027890902 	1.6657574
0.0028140704 	-0.03174423 	-0.0011692824 	1.6736766
0.0028341709 	-0.03174423 	-0.0011692824 	1.6736766
0.0028542714 	-0.031606377 	-0.005097145 	1.7204755
0.0028743719 	-0.040116062 	-0.015764761 	1.7342792
0.0028944724 	-0.040116062 	-0.015764761 	1.7342792
0.0029145729 	-0.030102921 	-0.0043340414 	1.7640792
0.0029346734 	-0.030102921 	-0.0043340414 	1.7640792
0.0029547739 	-0.038803834 	-0.014117201 	1.7797405
0.0029748744 	-0.038803834 	-0.014117201 	1.7797405
0.0029949749 	-0.031328991 	-0.01283997 	1.774805
0.0030150754 	-0.023939423 	0.0096521774 	1.7598165
0.0030351759 	-0.023939423 	0.0096521774 	1.7598165
0.0030552764 	-0.01905532 	0.0019169254 	1.7264155
0.0030753769 	-0.01905532 	0.0019169254 	1.7264155
0.0030954774 	-0.016088412 	-0.0079350434 	1.7374424
0.0031155779 	-0.007251746 	0.010281176 	1.7751154
0.0031356784 	-0.007251746 	0.010281176 	1.7751154
0.0031557789 	-0.0095478289 	0.030239515 	1.8062419
0.0031758794 	-0.0095478289 	0.030239515 	1.8062419
0.0031959799 	-0.0087464254 	0.024572994 	1.7920713
0.0032160804 	-0.0060503206 	0.0095852708 	1.7753757
0.0032361809 	-0.0060503206 	0.0095852708 	1.7753757
0.0032562814 	0.0052675576 	-0.017195347 	1.7846988
0.0032763819 	0.014340026 	-0.01802954 	1.7934885
0.0032964824 	0.014340026 	-0.01802954 	1.7934885
0.0033165829 	0.027021297 	-0.007731263 	1.7768569
0.0033366834 	0.035015067 	-0.015221419 	1.7805106
0.0033567839 	0.035015067 	-0.015221419 	1.7805106
0.0033768844 	0.030878575 	0.0021913518 	1.8053851
0.0033969849 	0.024012914 	0.018741368 	1.81188
0.0034170854 	0.024012914 	0.018741368 	1.81188
0.0034371859 	0.02315116 	0.018908954 	1.7525691
0.0034572864 	0.030354591 	0.010896779 	1.6769132
0.0034773869 	0.032765506 	-0.022297078 	1.62478
0.0034974874 	0.032765506 	-0.022297078 	1.62478
0.0035175879 	0.038279238 	-0.069860091 	1.6108899
0.0035376884 	0.045761176 	-0.049895886 	1.655228
0.0035577889 	0.043852207 	0.017680554 	1.7108822
0.0035778894 	0.043852207 	0.017680554 	1.7108822
0.0035979899 	0.036005433 	0.056894584 	1.7027449
0.0036180905 	0.028445928 	0.099443773 	1.6865236
0.003638191 	0.012026634 	0.11179743 	1.6757129
0.0036582915 	0.012026634 	0.11179743 	1.6757129
0.003678392 	0.0023644165 	0.095483869 	1.6512721
0.0036984925 	0.0027072445 	0.13030023 	1.6442161
0.003718593 	-0.0059666995 	0.15870434 	1.5941345
0.0037386935 	-0.0072926084 	0.14358965 	1.5208968
0.003758794 	0.010219195 	0.086740259 	1.4947567
0.0037788945 	0.010219195 	0.086740259 	1.4947567
0.003798995 	0.015277606 	-0.022908441 	1.516908
0.0038190955 	0.025190679 	-0.050679974 	1.5544858
0.003839196 	0.022926196 	0.039392479 	1.6194319
0.0038592965 	0.021446299 	0.066054855 	1.8097366
0.003879397 	0.024282236 	0.10050368 	1.9164569
0.0038994975 	0.033531424 	0.094009749 	1.8604328
0.003919598 	0.0052933268 	0.089190273 	1.8282553
0.0039396985 	0.016121535 	0.015646179 	1.8274309
0.003959799 	0.026669551 	-0.26766781 	1.0880339
0.0039798995 	-0.021275934 	0.0021147908 	0.43377372
0.004 	-0.021275934 	0.0021147908 	0.43377372
