0 	0.019985535 	-0.031920195 	2.0304309
2.0100503e-05 	-0.026481978 	-0.036497604 	2.0106835
4.0201005e-05 	-0.026481978 	-0.036497604 	2.0106835
6.0301508e-05 	-0.043935647 	-0.03100814 	1.9978079
8.040201e-05 	-0.043935647 	-0.03100814 	1.9978079
0.00010050251 	-0.043935647 	-0.03100814 	1.9978079
0.00012060302 	-0.06633692 	-0.019285478 	1.9935704
0.00014070352 	-0.06633692 	-0.019285478 	1.9935704
0.00016080402 	-0.06633692 	-0.019285478 	1.9935704
0.00018090452 	-0.063732877 	-0.013235305 	1.9859707
0.00020100503 	-0.063732877 	-0.013235305 	1.9859707
0.00022110553 	-0.063732877 	-0.013235305 	1.9859707
0.00024120603 	-0.053712535 	-0.01471439 	1.9925885
0.00026130653 	-0.053712535 	-0.01471439 	1.9925885
0.00028140704 	-0.068750738 	-0.0016144674 	2.0185948
0.00030150754 	-0.068750738 	-0.0016144674 	2.0185948
0.00032160804 	-0.068750738 	-0.0016144674 	2.0185948
0.00034170854 	-0.063514221 	0.003249709 	2.0108537
0.00036180905 	-0.063514221 	0.003249709 	2.0108537
0.00038190955 	-0.063514221 	0.003249709 	2.0108537
0.00040201005 	-0.049205487 	-0.0051235171 	2.0081656
0.00042211055 	-0.049205487 	-0.0051235171 	2.0081656
0.00044221106 	-0.049205487 	-0.0051235171 	2.0081656
0.00046231156 	-0.049789967 	0.0032876183 	1.9932153
0.00048241206 	-0.049789967 	0.0032876183 	1.9932153
0.00050251256 	-0.045390493 	0.014642906 	2.0180973
0.00052261307 	-0.045390493 	0.014642906 	2.0180973
0.00054271357 	-0.045390493 	0.014642906 	2.0180973
0.00056281407 	-0.042765273 	0.027047429 	2.0511366
0.00058291457 	-0.042765273 	0.027047429 	2.0511366
0.00060301508 	-0.042765273 	0.027047429 	2.0511366
0.00062311558 	-0.044336875 	0.032754239 	2.072196
0.00064321608 	-0.044336875 	0.032754239 	2.072196
0.00066331658 	-0.044336875 	0.032754239 	2.072196
0.00068341709 	-0.044514338 	0.034775107 	2.0485004
0.00070351759 	-0.047593997 	0.043894964 	2.0059536
0.00072361809 	-0.04030958 	0.047963391 	1.9482836
0.00074371859 	-0.04030958 	0.047963391 	1.9482836
0.0007638191 	-0.04030958 	0.047963391 	1.9482836
0.0007839196 	-0.029624082 	0.038781726 	1.9419818
0.0008040201 	-0.029624082 	0.038781726 	1.9419818
0.0008241206 	-0.029624082 	0.038781726 	1.9419818
0.00084422111 	-0.035713918 	0.035888352 	1.9817561
0.00086432161 	-0.035713918 	0.035888352 	1.9817561
0.00088442211 	-0.035713918 	0.035888352 	1.9817561
0.00090452261 	-0.039087887 	0.031173367 	2.0405166
0.00092462312 	-0.039087887 	0.031173367 	2.0405166
0.00094472362 	-0.030729746 	0.022009893 	2.0625822
0.00096482412 	-0.030729746 	0.022009893 	2.0625822
0.00098492462 	-0.030729746 	0.022009893 	2.0625822
0.0010050251 	-0.038460808 	-0.0054431609 	2.012418
0.0010251256 	-0.038460808 	-0.0054431609 	2.012418
0.0010452261 	-0.038460808 	-0.0054431609 	2.012418
0.0010653266 	-0.028505236 	-0.025457752 	2.0133548
0.0010854271 	-0.028505236 	-0.025457752 	2.0133548
0.0011055276 	-0.019400254 	-0.015795533 	1.9887858
0.0011256281 	-0.030130189 	-0.02234502 	2.0139511
0.0011457286 	-0.030130189 	-0.02234502 	2.0139511
0.0011658291 	-0.030130189 	-0.02234502 	2.0139511
0.0011859296 	-0.039978516 	-0.002312384 	2.0639062
0.0012060302 	-0.039097254 	-0.05428686 	1.9852503
0.0012261307 	-0.039097254 	-0.05428686 	1.9852503
0.0012462312 	-0.048985685 	-0.052956415 	1.9727736
0.0012663317 	-0.048985685 	-0.052956415 	1.9727736
0.0012864322 	-0.048985685 	-0.052956415 	1.9727736
0.0013065327 	-0.041437948 	-0.069484804 	1.9765143
0.0013266332 	-0.041437948 	-0.069484804 	1.9765143
0.0013467337 	-0.041437948 	-0.069484804 	1.9765143
0.0013668342 	-0.039494211 	-0.072938561 	2.0085803
0.0013869347 	-0.059672501 	-0.032437098 	1.9649937
0.0014070352 	-0.039494211 	-0.072938561 	2.0085803
0.0014271357 	-0.048455062 	-0.060498127 	2.0211923
0.0014472362 	-0.048455062 	-0.060498127 	2.0211923
0.0014673367 	-0.048455062 	-0.060498127 	2.0211923
0.0014874372 	-0.080779574 	-0.039378523 	2.0291832
0.0015075377 	-0.080779574 	-0.039378523 	2.0291832
0.0015276382 	-0.090625608 	-0.07652311 	2.0412818
0.0015477387 	-0.090625608 	-0.07652311 	2.0412818
0.0015678392 	-0.090625608 	-0.07652311 	2.0412818
0.0015879397 	-0.059744092 	-0.078497554 	1.9982188
0.0016080402 	-0.059744092 	-0.078497554 	1.9982188
0.0016281407 	-0.059744092 	-0.078497554 	1.9982188
0.0016482412 	-0.04242336 	-0.053457557 	2.0207519
0.0016683417 	-0.04242336 	-0.053457557 	2.0207519
0.0016884422 	-0.074387761 	-0.032972109 	2.0324141
0.0017085427 	-0.074387761 	-0.032972109 	2.0324141
0.0017286432 	-0.074387761 	-0.032972109 	2.0324141
0.0017487437 	-0.08620257 	-0.071149159 	1.9424002
0.0017688442 	-0.08620257 	-0.071149159 	1.9424002
0.0017889447 	-0.08620257 	-0.071149159 	1.9424002
0.0018090452 	-0.072757574 	-0.017349158 	1.9145853
0.0018291457 	-0.072757574 	-0.017349158 	1.9145853
0.0018492462 	-0.060414388 	0.00095276236 	1.8842876
0.0018693467 	-0.060414388 	0.00095276236 	1.8842876
0.0018894472 	-0.060414388 	0.00095276236 	1.8842876
0.0019095477 	-0.053447677 	-0.028589903 	1.8944523
0.0019296482 	-0.053447677 	-0.028589903 	1.8944523
0.0019497487 	-0.066800977 	0.0014140778 	1.9597542
0.0019698492 	-0.066800977 	0.0014140778 	1.9597542
0.0019899497 	-0.071755875 	-0.02540245 	1.9425584
0.0020100503 	-0.071755875 	-0.02540245 	1.9425584
0.0020301508 	-0.071755875 	-0.02540245 	1.9425584
0.0020502513 	-0.070775561 	0.022043496 	1.9317938
0.0020703518 	-0.070775561 	0.022043496 	1.9317938
0.0020904523 	-0.040728224 	0.046948249 	1.8910422
0.0021105528 	-0.040728224 	0.046948249 	1.8910422
0.0021306533 	-0.040728224 	0.046948249 	1.8910422
0.0021507538 	-0.040570111 	0.056323171 	1.8040012
0.0021708543 	-0.040570111 	0.056323171 	1.8040012
0.0021909548 	-0.049002982 	0.051260018 	1.826575
0.0022110553 	-0.049002982 	0.051260018 	1.826575
0.0022311558 	-0.048715147 	0.0053202069 	1.889988
0.0022512563 	-0.048715147 	0.0053202069 	1.889988
0.0022713568 	-0.031362047 	0.015930773 	1.8991589
0.0022914573 	-0.031362047 	0.015930773 	1.8991589
0.0023115578 	-0.031362047 	0.015930773 	1.8991589
0.0023316583 	-0.021380854 	0.032283176 	1.8503212
0.0023517588 	-0.021380854 	0.032283176 	1.8503212
0.0023718593 	-0.012693702 	0.032857019 	1.8186914
0.0023919598 	-0.012693702 	0.032857019 	1.8186914
0.0024120603 	0.0048154987 	-0.00095179547 	1.8297774
0.0024321608 	0.0048154987 	-0.00095179547 	1.8297774
0.0024522613 	0.014069244 	0.0056085471 	1.8504236
0.0024723618 	0.014069244 	0.0056085471 	1.8504236
0.0024924623 	0.012603315 	0.02295084 	1.8737795
0.0025125628 	0.012603315 	0.02295084 	1.8737795
0.0025326633 	0.011417233 	0.021171892 	1.8654668
0.0025527638 	0.011417233 	0.021171892 	1.8654668
0.0025728643 	0.01532199 	0.015406999 	1.8340166
0.0025929648 	0.01532199 	0.015406999 	1.8340166
0.0026130653 	0.024044319 	0.026062 	1.8340434
0.0026331658 	0.024044319 	0.026062 	1.8340434
0.0026532663 	0.028229384 	0.030409439 	1.8430435
0.0026733668 	0.028229384 	0.030409439 	1.8430435
0.0026934673 	0.030380234 	0.0048992701 	1.8340033
0.0027135678 	0.030380234 	0.0048992701 	1.8340033
0.0027336683 	0.033062356 	-0.0058553752 	1.8485867
0.0027537688 	0.033062356 	-0.0058553752 	1.8485867
0.0027738693 	0.046381558 	0.0074195821 	1.8497681
0.0027939698 	0.046381558 	0.0074195821 	1.8497681
0.0028140704 	0.052875222 	0.026480237 	1.8324634
0.0028341709 	0.052875222 	0.026480237 	1.8324634
0.0028542714 	0.057919845 	0.0067880486 	1.7755141
0.0028743719 	0.059780827 	-0.0037307353 	1.7084511
0.0028944724 	0.059780827 	-0.0037307353 	1.7084511
0.0029145729 	0.052664064 	0.034162555 	1.7259253
0.0029346734 	0.052664064 	0.034162555 	1.7259253
0.0029547739 	0.04729959 	0.029867625 	1.8150184
0.0029748744 	0.04729959 	0.029867625 	1.8150184
0.0029949749 	0.039369235 	0.02144696 	1.8576617
0.0030150754 	0.028349096 	0.029880615 	1.8421328
0.0030351759 	0.028349096 	0.029880615 	1.8421328
0.0030552764 	0.024511351 	0.0068030879 	1.8270764
0.0030753769 	0.024511351 	0.0068030879 	1.8270764
0.0030954774 	0.022538099 	0.0021136015 	1.7817826
0.0031155779 	0.023272487 	0.0026227006 	1.7399817
0.0031356784 	0.023272487 	0.0026227006 	1.7399817
0.0031557789 	0.023915445 	-0.0091383996 	1.7457609
0.0031758794 	0.023915445 	-0.0091383996 	1.7457609
0.0031959799 	0.029490614 	-0.013820464 	1.7575821
0.0032160804 	0.036929607 	0.00078106025 	1.7842259
0.0032361809 	0.036929607 	0.00078106025 	1.7842259
0.0032562814 	0.038457529 	-0.0070583335 	1.8191961
0.0032763819 	0.061411041 	-0.025938547 	1.80247
0.0032964824 	0.061411041 	-0.025938547 	1.80247
0.0033165829 	0.070288509 	-0.020947746 	1.804798
0.0033366834 	0.080330015 	-0.03086667 	1.7916899
0.0033567839 	0.080330015 	-0.03086667 	1.7916899
0.0033768844 	0.07580134 	-0.033330062 	1.7739998
0.0033969849 	0.068284554 	-0.026095626 	1.7872557
0.0034170854 	0.068284554 	-0.026095626 	1.7872557
0.0034371859 	0.058658845 	-0.064623321 	1.8389302
0.0034572864 	0.02692599 	-0.020043683 	1.8584368
0.0034773869 	-0.0068059183 	0.068835885 	1.7692761
0.0034974874 	-0.0068059183 	0.068835885 	1.7692761
0.0035175879 	-0.012152431 	0.079180008 	1.6544038
0.0035376884 	-0.0084078139 	0.077665688 	1.5960435
0.0035577889 	-0.0093547157 	0.091793201 	1.6769188
0.0035778894 	-0.0093547157 	0.091793201 	1.6769188
0.0035979899 	-0.0015643474 	0.021773744 	1.7718771
0.0036180905 	0.017227011 	-0.039126461 	1.8338093
0.003638191 	0.022741168 	-0.051935625 	1.8652769
0.0036582915 	0.022741168 	-0.051935625 	1.8652769
0.003678392 	0.022488867 	0.0048712947 	1.8739173
0.0036984925 	0.026105219 	0.018868732 	1.8278507
0.003718593 	0.024117749 	-0.0092866257 	1.6839154
0.0037386935 	0.022859265 	-0.03955781 	1.6087487
0.003758794 	0.015724658 	-0.085042479 	1.5880086
0.0037788945 	0.015724658 	-0.085042479 	1.5880086
0.003798995 	0.013810248 	-0.13534526 	1.571054
0.0038190955 	0.012924338 	-0.11735622 	1.5255866
0.003839196 	0.0081814658 	-0.01768496 	1.507784
0.0038592965 	0.019418321 	0.12719851 	1.4550033
0.003879397 	0.010059658 	0.25588924 	1.4917668
0.0038994975 	0.007664254 	0.19133473 	1.4876001
0.003919598 	-0.011056022 	-0.024032104 	1.3753194
0.0039396985 	-0.044411647 	-0.005233202 	1.258246
0.003959799 	-0.00055946394 	0.17223924 	1.0719955
0.0039798995 	-0.00066939569 	-0.053995517 	0.36108934
0.004 	-0.00066939569 	-0.053995517 	0.36108934
