0 	0.010359624 	-0.018261281 	2.060753
2.0100503e-05 	-0.012376254 	-0.0099392046 	2.060405
4.0201005e-05 	-0.012376254 	-0.0099392046 	2.060405
6.0301508e-05 	-0.020687287 	-0.0018998629 	2.063466
8.040201e-05 	-0.020687287 	-0.0018998629 	2.063466
0.00010050251 	-0.020687287 	-0.0018998629 	2.063466
0.00012060302 	-0.027635464 	-0.0012142577 	2.0690939
0.00014070352 	-0.027635464 	-0.0012142577 	2.0690939
0.00016080402 	-0.027635464 	-0.0012142577 	2.0690939
0.00018090452 	-0.032700151 	0.00076102118 	2.0745412
0.00020100503 	-0.032700151 	0.00076102118 	2.0745412
0.00022110553 	-0.032700151 	0.00076102118 	2.0745412
0.00024120603 	-0.037243128 	0.0069971821 	2.0725673
0.00026130653 	-0.037243128 	0.0069971821 	2.0725673
0.00028140704 	-0.042837572 	0.012162416 	2.0784234
0.00030150754 	-0.042837572 	0.012162416 	2.0784234
0.00032160804 	-0.042837572 	0.012162416 	2.0784234
0.00034170854 	-0.046468368 	0.021788191 	2.0658916
0.00036180905 	-0.046468368 	0.021788191 	2.0658916
0.00038190955 	-0.046468368 	0.021788191 	2.0658916
0.00040201005 	-0.048560656 	0.027835715 	2.0375246
0.00042211055 	-0.048560656 	0.027835715 	2.0375246
0.00044221106 	-0.048560656 	0.027835715 	2.0375246
0.00046231156 	-0.047056277 	0.029214931 	2.0238139
0.00048241206 	-0.047056277 	0.029214931 	2.0238139
0.00050251256 	-0.043367997 	0.027921773 	2.0493661
0.00052261307 	-0.043367997 	0.027921773 	2.0493661
0.00054271357 	-0.043367997 	0.027921773 	2.0493661
0.00056281407 	-0.037523597 	0.029083001 	2.107239
0.00058291457 	-0.037523597 	0.029083001 	2.107239
0.00060301508 	-0.037523597 	0.029083001 	2.107239
0.00062311558 	-0.03925348 	0.033616463 	2.0953685
0.00064321608 	-0.03925348 	0.033616463 	2.0953685
0.00066331658 	-0.03925348 	0.033616463 	2.0953685
0.00068341709 	-0.03276847 	0.036021331 	2.0543606
0.00070351759 	-0.03276847 	0.036021331 	2.0543606
0.00072361809 	-0.026504986 	0.024747012 	2.0583071
0.00074371859 	-0.026504986 	0.024747012 	2.0583071
0.0007638191 	-0.026504986 	0.024747012 	2.0583071
0.0007839196 	-0.014754169 	0.017884416 	2.080018
0.0008040201 	-0.014754169 	0.017884416 	2.080018
0.0008241206 	-0.014754169 	0.017884416 	2.080018
0.00084422111 	0.0040418033 	0.0063026746 	2.0518008
0.00086432161 	0.0040418033 	0.0063026746 	2.0518008
0.00088442211 	0.0040418033 	0.0063026746 	2.0518008
0.00090452261 	0.041744923 	-0.0079873141 	2.0335047
0.00092462312 	0.041744923 	-0.0079873141 	2.0335047
0.00094472362 	0.054089131 	0.026871195 	2.051216
0.00096482412 	0.015085464 	0.027531473 	2.0728827
0.00098492462 	0.015085464 	0.027531473 	2.0728827
0.0010050251 	-0.0033275153 	0.020096491 	2.0453486
0.0010251256 	-0.0033275153 	0.020096491 	2.0453486
0.0010452261 	-0.0033275153 	0.020096491 	2.0453486
0.0010653266 	-0.029990194 	0.025673631 	1.9961803
0.0010854271 	-0.029990194 	0.025673631 	1.9961803
0.0011055276 	-0.029990194 	0.025673631 	1.9961803
0.0011256281 	-0.03333367 	0.015600955 	1.9908353
0.0011457286 	-0.03333367 	0.015600955 	1.9908353
0.0011658291 	-0.03333367 	0.015600955 	1.9908353
0.0011859296 	-0.022714109 	0.00062775204 	1.9271994
0.0012060302 	-0.05469282 	0.012988217 	2.0077754
0.0012261307 	-0.05469282 	0.012988217 	2.0077754
0.0012462312 	-0.056025936 	-0.011711727 	1.9680765
0.0012663317 	-0.056025936 	-0.011711727 	1.9680765
0.0012864322 	-0.056025936 	-0.011711727 	1.9680765
0.0013065327 	-0.055553999 	-0.03307798 	1.9313098
0.0013266332 	-0.050623963 	-0.03335799 	1.9483859
0.0013467337 	-0.050623963 	-0.03335799 	1.9483859
0.0013668342 	-0.061814555 	-0.026651129 	1.9706003
0.0013869347 	-0.043533346 	-0.038467895 	1.9754102
0.0014070352 	-0.043533346 	-0.038467895 	1.9754102
0.0014271357 	-0.0618409 	-0.016164713 	1.9971106
0.0014472362 	-0.0618409 	-0.016164713 	1.9971106
0.0014673367 	-0.0618409 	-0.016164713 	1.9971106
0.0014874372 	-0.02611053 	0.011070656 	1.9343146
0.0015075377 	-0.02611053 	0.011070656 	1.9343146
0.0015276382 	-0.029145654 	0.0032698702 	1.9052324
0.0015477387 	-0.029145654 	0.0032698702 	1.9052324
0.0015678392 	-0.029145654 	0.0032698702 	1.9052324
0.0015879397 	-0.022274842 	0.019205489 	2.0623726
0.0016080402 	-0.020739867 	-0.024820218 	1.9623295
0.0016281407 	-0.020739867 	-0.024820218 	1.9623295
0.0016482412 	-0.015684883 	-0.047759828 	2.0411758
0.0016683417 	-0.015684883 	-0.047759828 	2.0411758
0.0016884422 	-0.022495828 	-0.052259968 	2.0013664
0.0017085427 	-0.022495828 	-0.052259968 	2.0013664
0.0017286432 	-0.022495828 	-0.052259968 	2.0013664
0.0017487437 	-0.017479721 	-0.036977182 	1.93775
0.0017688442 	-0.017479721 	-0.036977182 	1.93775
0.0017889447 	-0.017479721 	-0.036977182 	1.93775
0.0018090452 	-0.024691694 	-0.022615285 	1.9648112
0.0018291457 	-0.024691694 	-0.022615285 	1.9648112
0.0018492462 	-0.050093432 	-0.02646387 	1.9729348
0.0018693467 	-0.050093432 	-0.02646387 	1.9729348
0.0018894472 	-0.050093432 	-0.02646387 	1.9729348
0.0019095477 	-0.04252948 	-0.0062712255 	1.9129156
0.0019296482 	-0.04252948 	-0.0062712255 	1.9129156
0.0019497487 	-0.049828981 	-0.0040468777 	1.9176749
0.0019698492 	-0.049828981 	-0.0040468777 	1.9176749
0.0019899497 	-0.042252814 	-0.019220132 	1.8976041
0.0020100503 	-0.042252814 	-0.019220132 	1.8976041
0.0020301508 	-0.042252814 	-0.019220132 	1.8976041
0.0020502513 	-0.03448911 	-0.02406922 	1.8420121
0.0020703518 	-0.03448911 	-0.02406922 	1.8420121
0.0020904523 	-0.035038269 	-0.0099199678 	1.8107153
0.0021105528 	-0.035038269 	-0.0099199678 	1.8107153
0.0021306533 	-0.035038269 	-0.0099199678 	1.8107153
0.0021507538 	-0.041500773 	-0.0012145762 	1.8323858
0.0021708543 	-0.041500773 	-0.0012145762 	1.8323858
0.0021909548 	-0.039853335 	-0.029599127 	1.8765991
0.0022110553 	-0.039853335 	-0.029599127 	1.8765991
0.0022311558 	-0.034452524 	-0.050802445 	1.8148303
0.0022512563 	-0.034452524 	-0.050802445 	1.8148303
0.0022713568 	-0.031939319 	-0.037587259 	1.7477844
0.0022914573 	-0.031939319 	-0.037587259 	1.7477844
0.0023115578 	-0.031939319 	-0.037587259 	1.7477844
0.0023316583 	-0.036109084 	0.032585917 	1.7076855
0.0023517588 	-0.036109084 	0.032585917 	1.7076855
0.0023718593 	-0.057988304 	0.072358577 	1.7444829
0.0023919598 	-0.057988304 	0.072358577 	1.7444829
0.0024120603 	-0.066687058 	0.049402737 	1.7714837
0.0024321608 	-0.066687058 	0.049402737 	1.7714837
0.0024522613 	-0.064269639 	0.0095744729 	1.7843713
0.0024723618 	-0.064269639 	0.0095744729 	1.7843713
0.0024924623 	-0.044648943 	-0.019990587 	1.8296616
0.0025125628 	-0.044648943 	-0.019990587 	1.8296616
0.0025326633 	-0.029478264 	-0.0035966199 	1.823086
0.0025527638 	-0.029478264 	-0.0035966199 	1.823086
0.0025728643 	-0.019610546 	0.00614349 	1.7998514
0.0025929648 	-0.019610546 	0.00614349 	1.7998514
0.0026130653 	-0.0039267151 	-0.0062039947 	1.8082515
0.0026331658 	-0.0039267151 	-0.0062039947 	1.8082515
0.0026532663 	-0.0051851036 	-0.026670801 	1.8363069
0.0026733668 	-0.0051851036 	-0.026670801 	1.8363069
0.0026934673 	-0.027325107 	-0.020297383 	1.7838411
0.0027135678 	-0.027325107 	-0.020297383 	1.7838411
0.0027336683 	-0.037557078 	-0.012079807 	1.7507358
0.0027537688 	-0.037557078 	-0.012079807 	1.7507358
0.0027738693 	-0.050336719 	0.002211624 	1.7222839
0.0027939698 	-0.050336719 	0.002211624 	1.7222839
0.0028140704 	-0.052562095 	0.0014556867 	1.7030419
0.0028341709 	-0.052562095 	0.0014556867 	1.7030419
0.0028542714 	-0.062492603 	-0.024836215 	1.732027
0.0028743719 	-0.07023989 	-0.0054448526 	1.7939174
0.0028944724 	-0.07023989 	-0.0054448526 	1.7939174
0.0029145729 	-0.073821993 	0.028249879 	1.8179577
0.0029346734 	-0.073821993 	0.028249879 	1.8179577
0.0029547739 	-0.077950677 	0.015348978 	1.8282177
0.0029748744 	-0.077950677 	0.015348978 	1.8282177
0.0029949749 	-0.084358349 	0.0013046295 	1.8286079
0.0030150754 	-0.076433444 	-0.0098262624 	1.8750951
0.0030351759 	-0.076433444 	-0.0098262624 	1.8750951
0.0030552764 	-0.063725313 	0.02483439 	1.8919864
0.0030753769 	-0.063725313 	0.02483439 	1.8919864
0.0030954774 	-0.049404611 	0.039614392 	1.9295214
0.0031155779 	-0.043144319 	0.012382198 	1.903533
0.0031356784 	-0.043144319 	0.012382198 	1.903533
0.0031557789 	-0.038421228 	0.021920394 	1.8906074
0.0031758794 	-0.038421228 	0.021920394 	1.8906074
0.0031959799 	-0.03617338 	0.042569206 	1.8383454
0.0032160804 	-0.03177254 	0.053061912 	1.820442
0.0032361809 	-0.03177254 	0.053061912 	1.820442
0.0032562814 	-0.037092858 	0.044656268 	1.7858455
0.0032763819 	-0.041306332 	0.030079802 	1.7483428
0.0032964824 	-0.041306332 	0.030079802 	1.7483428
0.0033165829 	-0.048611062 	0.0056481273 	1.7321403
0.0033366834 	-0.051750581 	-0.002687774 	1.7080588
0.0033567839 	-0.051750581 	-0.002687774 	1.7080588
0.0033768844 	-0.055553164 	0.021153061 	1.6993514
0.0033969849 	-0.061867694 	0.0073989376 	1.7003639
0.0034170854 	-0.061867694 	0.0073989376 	1.7003639
0.0034371859 	-0.073429626 	-0.0098683397 	1.6700704
0.0034572864 	-0.076633976 	-0.011709514 	1.6166019
0.0034773869 	-0.077187246 	-0.02328113 	1.5852586
0.0034974874 	-0.077187246 	-0.02328113 	1.5852586
0.0035175879 	-0.07885477 	-0.031595202 	1.6157255
0.0035376884 	-0.071953993 	-0.028021456 	1.6493641
0.0035577889 	-0.058259571 	0.0067898194 	1.6360469
0.0035778894 	-0.058259571 	0.0067898194 	1.6360469
0.0035979899 	-0.047100043 	0.068654321 	1.5954643
0.0036180905 	-0.039186017 	0.12363635 	1.580563
0.003638191 	-0.044363506 	0.11481914 	1.5924364
0.0036582915 	-0.044363506 	0.11481914 	1.5924364
0.003678392 	-0.04552119 	0.050724049 	1.6110805
0.0036984925 	-0.052220336 	-0.041734846 	1.6308521
0.003718593 	-0.037532863 	-0.063099103 	1.6351784
0.0037386935 	-0.040549659 	-0.058680813 	1.6303147
0.003758794 	-0.023813396 	-0.075292023 	1.534729
0.0037788945 	-0.023813396 	-0.075292023 	1.534729
0.003798995 	-0.037271028 	-0.12794521 	1.4886965
0.0038190955 	-0.037277367 	-0.022803965 	1.4086293
0.003839196 	-0.03571176 	-0.020635766 	1.4874082
0.0038592965 	-0.025873322 	0.048250765 	1.4842932
0.003879397 	-0.039223587 	-0.039048558 	1.3331815
0.0038994975 	-0.055503565 	-0.13332528 	1.1212144
0.003919598 	-0.10050445 	0.018521183 	1.2882062
0.0039396985 	-0.073794861 	0.10274496 	1.3632293
0.003959799 	0.012929935 	0.17966679 	1.3705405
0.0039798995 	-0.0078631624 	0.18987309 	0.71001447
0.004 	-0.0078631624 	0.18987309 	0.71001447
