0 	-0.071853667 	-0.0034605424 	2.0878186
2.0100503e-05 	-0.071853667 	-0.0034605424 	2.0878186
4.0201005e-05 	-0.071853667 	-0.0034605424 	2.0878186
6.0301508e-05 	-0.06474104 	-0.026969061 	2.0781873
8.040201e-05 	-0.06474104 	-0.026969061 	2.0781873
0.00010050251 	-0.06474104 	-0.026969061 	2.0781873
0.00012060302 	-0.055616388 	-0.034189395 	2.0850838
0.00014070352 	-0.055616388 	-0.034189395 	2.0850838
0.00016080402 	-0.055616388 	-0.034189395 	2.0850838
0.00018090452 	-0.047607296 	-0.036760232 	2.0853072
0.00020100503 	-0.047607296 	-0.036760232 	2.0853072
0.00022110553 	-0.047607296 	-0.036760232 	2.0853072
0.00024120603 	-0.039499633 	-0.042961459 	2.0817693
0.00026130653 	-0.039499633 	-0.042961459 	2.0817693
0.00028140704 	-0.021347331 	-0.043646992 	2.098834
0.00030150754 	-0.021347331 	-0.043646992 	2.098834
0.00032160804 	-0.021347331 	-0.043646992 	2.098834
0.00034170854 	-0.013118806 	-0.032270809 	2.0999226
0.00036180905 	-0.013118806 	-0.032270809 	2.0999226
0.00038190955 	-0.013118806 	-0.032270809 	2.0999226
0.00040201005 	-0.0088947618 	-0.027865293 	2.0947604
0.00042211055 	-0.0088947618 	-0.027865293 	2.0947604
0.00044221106 	-0.0088947618 	-0.027865293 	2.0947604
0.00046231156 	-0.0085834732 	-0.036530463 	2.091518
0.00048241206 	-0.0085834732 	-0.036530463 	2.091518
0.00050251256 	-0.006942012 	-0.040559196 	2.0877425
0.00052261307 	-0.006942012 	-0.040559196 	2.0877425
0.00054271357 	-0.006942012 	-0.040559196 	2.0877425
0.00056281407 	-0.0085017037 	-0.039549987 	2.0824884
0.00058291457 	-0.0085017037 	-0.039549987 	2.0824884
0.00060301508 	-0.0085017037 	-0.039549987 	2.0824884
0.00062311558 	-0.0035956937 	-0.036645035 	2.0915105
0.00064321608 	-0.0035956937 	-0.036645035 	2.0915105
0.00066331658 	0.00036992478 	-0.051307783 	2.0749058
0.00068341709 	0.0070163595 	-0.051521105 	2.0866179
0.00070351759 	0.0070163595 	-0.051521105 	2.0866179
0.00072361809 	0.011028984 	-0.047977692 	2.0910673
0.00074371859 	0.011028984 	-0.047977692 	2.0910673
0.0007638191 	0.011028984 	-0.047977692 	2.0910673
0.0007839196 	0.017676617 	-0.04967477 	2.0923918
0.0008040201 	0.017676617 	-0.04967477 	2.0923918
0.0008241206 	0.017676617 	-0.04967477 	2.0923918
0.00084422111 	0.022993238 	-0.034521613 	2.0952379
0.00086432161 	0.022993238 	-0.034521613 	2.0952379
0.00088442211 	0.022993238 	-0.034521613 	2.0952379
0.00090452261 	0.022794648 	-0.021060432 	2.0977342
0.00092462312 	0.022794648 	-0.021060432 	2.0977342
0.00094472362 	0.012623066 	-0.016147565 	2.0859425
0.00096482412 	0.012623066 	-0.016147565 	2.0859425
0.00098492462 	0.012623066 	-0.016147565 	2.0859425
0.0010050251 	0.025130734 	-0.016973733 	2.0787185
0.0010251256 	0.025130734 	-0.016973733 	2.0787185
0.0010452261 	0.025130734 	-0.016973733 	2.0787185
0.0010653266 	0.016750989 	-0.0081553743 	2.0742716
0.0010854271 	0.016750989 	-0.0081553743 	2.0742716
0.0011055276 	0.016750989 	-0.0081553743 	2.0742716
0.0011256281 	0.0076399552 	0.0036150541 	2.0446281
0.0011457286 	0.0076399552 	0.0036150541 	2.0446281
0.0011658291 	0.0076399552 	0.0036150541 	2.0446281
0.0011859296 	0.0011177655 	0.0037761688 	1.9909622
0.0012060302 	0.0011177655 	0.0037761688 	1.9909622
0.0012261307 	0.0011177655 	0.0037761688 	1.9909622
0.0012462312 	0.0085284654 	-0.010206113 	2.0091113
0.0012663317 	0.0085284654 	-0.010206113 	2.0091113
0.0012864322 	0.0085284654 	-0.010206113 	2.0091113
0.0013065327 	0.005805723 	-0.0098772828 	2.0435014
0.0013266332 	0.005805723 	-0.0098772828 	2.0435014
0.0013467337 	0.005805723 	-0.0098772828 	2.0435014
0.0013668342 	-0.0066803462 	-0.006205367 	2.0920885
0.0013869347 	-0.0066803462 	-0.006205367 	2.0920885
0.0014070352 	-0.0066803462 	-0.006205367 	2.0920885
0.0014271357 	-0.013267083 	-0.012358343 	2.0937616
0.0014472362 	-0.013267083 	-0.012358343 	2.0937616
0.0014673367 	-0.013267083 	-0.012358343 	2.0937616
0.0014874372 	-0.022838197 	0.0006508026 	2.0898981
0.0015075377 	-0.022838197 	0.0006508026 	2.0898981
0.0015276382 	-0.030880697 	0.0014029745 	2.0853342
0.0015477387 	-0.030880697 	0.0014029745 	2.0853342
0.0015678392 	-0.030880697 	0.0014029745 	2.0853342
0.0015879397 	-0.01886185 	-0.0061955393 	2.0715497
0.0016080402 	-0.01886185 	-0.0061955393 	2.0715497
0.0016281407 	-0.01886185 	-0.0061955393 	2.0715497
0.0016482412 	-0.011195028 	0.0024064354 	2.060581
0.0016683417 	-0.011195028 	0.0024064354 	2.060581
0.0016884422 	0.0061069498 	-0.00049974704 	2.024133
0.0017085427 	0.0061069498 	-0.00049974704 	2.024133
0.0017286432 	0.0061069498 	-0.00049974704 	2.024133
0.0017487437 	0.031775297 	0.016988865 	2.0032124
0.0017688442 	0.031775297 	0.016988865 	2.0032124
0.0017889447 	0.031775297 	0.016988865 	2.0032124
0.0018090452 	0.048887054 	0.00088947777 	1.9908235
0.0018291457 	0.048887054 	0.00088947777 	1.9908235
0.0018492462 	0.067836956 	-0.024756881 	1.9681632
0.0018693467 	0.067836956 	-0.024756881 	1.9681632
0.0018894472 	0.067836956 	-0.024756881 	1.9681632
0.0019095477 	0.091600141 	-0.031147883 	1.9310982
0.0019296482 	0.091600141 	-0.031147883 	1.9310982
0.0019497487 	0.099707471 	-0.0295234 	1.9296458
0.0019698492 	0.099707471 	-0.0295234 	1.9296458
0.0019899497 	0.10759961 	-0.02917225 	1.8984407
0.0020100503 	0.10759961 	-0.02917225 	1.8984407
0.0020301508 	0.10759961 	-0.02917225 	1.8984407
0.0020502513 	0.089134763 	-0.045532008 	1.8625165
0.0020703518 	0.089134763 	-0.045532008 	1.8625165
0.0020904523 	0.082756297 	-0.023104384 	1.8874716
0.0021105528 	0.082756297 	-0.023104384 	1.8874716
0.0021306533 	0.082756297 	-0.023104384 	1.8874716
0.0021507538 	0.072010364 	0.0024740691 	1.8826457
0.0021708543 	0.072010364 	0.0024740691 	1.8826457
0.0021909548 	0.079969358 	0.025492101 	1.8881769
0.0022110553 	0.079969358 	0.025492101 	1.8881769
0.0022311558 	0.058435904 	0.066277689 	1.9104816
0.0022512563 	0.058435904 	0.066277689 	1.9104816
0.0022713568 	0.065523613 	0.084930426 	1.929379
0.0022914573 	0.065523613 	0.084930426 	1.929379
0.0023115578 	0.065523613 	0.084930426 	1.929379
0.0023316583 	0.04413533 	0.085838509 	1.9045386
0.0023517588 	0.04413533 	0.085838509 	1.9045386
0.0023718593 	0.048976378 	0.11163244 	1.9189822
0.0023919598 	0.048976378 	0.11163244 	1.9189822
0.0024120603 	0.020522253 	0.13731977 	1.9129602
0.0024321608 	0.020522253 	0.13731977 	1.9129602
0.0024522613 	0.023661438 	0.13544642 	1.9169456
0.0024723618 	0.023661438 	0.13544642 	1.9169456
0.0024924623 	0.016507709 	0.11674154 	1.9224374
0.0025125628 	0.016507709 	0.11674154 	1.9224374
0.0025326633 	0.01269136 	0.078716843 	1.9197436
0.0025527638 	0.01269136 	0.078716843 	1.9197436
0.0025728643 	-0.0016361723 	0.051035289 	1.9026227
0.0025929648 	-0.0016361723 	0.051035289 	1.9026227
0.0026130653 	0.010589551 	0.054822197 	1.9040758
0.0026331658 	0.010589551 	0.054822197 	1.9040758
0.0026532663 	0.017752863 	0.056580686 	1.9321602
0.0026733668 	0.017752863 	0.056580686 	1.9321602
0.0026934673 	0.027747003 	0.027526437 	1.9017181
0.0027135678 	0.027747003 	0.027526437 	1.9017181
0.0027336683 	0.043470052 	0.0050997417 	1.8980348
0.0027537688 	0.043470052 	0.0050997417 	1.8980348
0.0027738693 	0.042778563 	0.073757367 	1.8951604
0.0027939698 	0.042778563 	0.073757367 	1.8951604
0.0028140704 	0.046976118 	0.073938992 	1.8440738
0.0028341709 	0.046976118 	0.073938992 	1.8440738
0.0028542714 	0.04644234 	-0.038571387 	1.8318477
0.0028743719 	0.018853608 	-0.057468849 	1.8332001
0.0028944724 	0.018853608 	-0.057468849 	1.8332001
0.0029145729 	0.0040968718 	0.0049528783 	1.8006819
0.0029346734 	0.0040968718 	0.0049528783 	1.8006819
0.0029547739 	0.016590506 	0.03665872 	1.7719426
0.0029748744 	0.016590506 	0.03665872 	1.7719426
0.0029949749 	0.033681668 	0.042214733 	1.7644447
0.0030150754 	0.040537204 	0.054402031 	1.7771759
0.0030351759 	0.040537204 	0.054402031 	1.7771759
0.0030552764 	0.047225719 	0.068141313 	1.791827
0.0030753769 	0.047225719 	0.068141313 	1.791827
0.0030954774 	0.044155851 	0.086974878 	1.7874849
0.0031155779 	0.046350563 	0.13132428 	1.7920724
0.0031356784 	0.046350563 	0.13132428 	1.7920724
0.0031557789 	0.038928507 	0.13710495 	1.7990733
0.0031758794 	0.038928507 	0.13710495 	1.7990733
0.0031959799 	0.043114006 	0.066646229 	1.7917857
0.0032160804 	0.024132179 	-0.025878209 	1.7430618
0.0032361809 	0.024132179 	-0.025878209 	1.7430618
0.0032562814 	0.039192207 	-0.093565185 	1.6870211
0.0032763819 	0.047384039 	-0.072024805 	1.6965971
0.0032964824 	0.047384039 	-0.072024805 	1.6965971
0.0033165829 	0.037138687 	-0.064487035 	1.7289009
0.0033366834 	0.015498647 	-0.068896822 	1.7474239
0.0033567839 	0.015498647 	-0.068896822 	1.7474239
0.0033768844 	-0.0011236746 	-0.025732283 	1.7601585
0.0033969849 	-0.01458712 	-0.030343257 	1.7511851
0.0034170854 	-0.01458712 	-0.030343257 	1.7511851
0.0034371859 	-0.010036739 	-0.064890997 	1.7226805
0.0034572864 	0.00067256495 	-0.068668526 	1.7359594
0.0034773869 	0.00088558803 	-0.060158527 	1.7679732
0.0034974874 	0.00088558803 	-0.060158527 	1.7679732
0.0035175879 	-0.0038039733 	-0.095802884 	1.8274259
0.0035376884 	-0.011111951 	-0.16884057 	1.8638892
0.0035577889 	-0.021007202 	-0.18389713 	1.8108742
0.0035778894 	-0.021007202 	-0.18389713 	1.8108742
0.0035979899 	-0.023034634 	-0.13137945 	1.748232
0.0036180905 	-0.021979593 	-0.090102597 	1.7521065
0.003638191 	-0.025038683 	-0.043138819 	1.7820029
0.0036582915 	-0.025038683 	-0.043138819 	1.7820029
0.003678392 	-0.022362502 	0.033162255 	1.7673868
0.0036984925 	-0.024071877 	0.075336842 	1.7188625
0.003718593 	-0.028127377 	0.097625662 	1.6539735
0.0037386935 	-0.026621391 	0.11908531 	1.542022
0.003758794 	-0.0097450005 	0.14437341 	1.4857226
0.0037788945 	-0.0097450005 	0.14437341 	1.4857226
0.003798995 	-0.0077750509 	0.14904359 	1.5432366
0.0038190955 	-0.025821407 	0.1312622 	1.5755523
0.003839196 	-0.033768982 	0.10298214 	1.5647635
0.0038592965 	-0.032619704 	0.017095026 	1.588239
0.003879397 	-0.022030027 	-0.10144422 	1.6032705
0.0038994975 	-0.039354425 	-0.066262601 	1.5686233
0.003919598 	-0.063309186 	-0.012269923 	1.5524028
0.0039396985 	-0.037720122 	-0.15316741 	1.1346704
0.003959799 	0.007896831 	-0.026647897 	0.66003326
0.0039798995 	-0.049101832 	0.1646452 	0.67645878
0.004 	-0.049101832 	0.1646452 	0.67645878
