0 	-0.0068203157 	0.026443525 	2.1066456
2.0100503e-05 	0.017604157 	0.019071394 	2.0777396
4.0201005e-05 	0.017604157 	0.019071394 	2.0777396
6.0301508e-05 	0.023526764 	0.021861633 	2.0651209
8.040201e-05 	0.023526764 	0.021861633 	2.0651209
0.00010050251 	0.023526764 	0.021861633 	2.0651209
0.00012060302 	0.022395949 	0.02210178 	2.0943289
0.00014070352 	0.022395949 	0.02210178 	2.0943289
0.00016080402 	0.022395949 	0.02210178 	2.0943289
0.00018090452 	0.02369847 	-0.0013241479 	2.1014025
0.00020100503 	0.02369847 	-0.0013241479 	2.1014025
0.00022110553 	0.02369847 	-0.0013241479 	2.1014025
0.00024120603 	0.014478724 	-0.0064695807 	2.079512
0.00026130653 	0.014478724 	-0.0064695807 	2.079512
0.00028140704 	-0.0079048442 	0.022307375 	2.0655682
0.00030150754 	-0.0079048442 	0.022307375 	2.0655682
0.00032160804 	-0.0079048442 	0.022307375 	2.0655682
0.00034170854 	-0.025879954 	0.035199891 	2.0653297
0.00036180905 	-0.025879954 	0.035199891 	2.0653297
0.00038190955 	-0.025879954 	0.035199891 	2.0653297
0.00040201005 	-0.023348197 	0.030012383 	2.0750718
0.00042211055 	-0.023348197 	0.030012383 	2.0750718
0.00044221106 	-0.023348197 	0.030012383 	2.0750718
0.00046231156 	-0.021715277 	0.030951306 	2.0625044
0.00048241206 	-0.021715277 	0.030951306 	2.0625044
0.00050251256 	-0.016313392 	0.021143243 	2.0230565
0.00052261307 	-0.016313392 	0.021143243 	2.0230565
0.00054271357 	-0.016313392 	0.021143243 	2.0230565
0.00056281407 	-0.02216918 	0.019491501 	2.0461862
0.00058291457 	-0.02216918 	0.019491501 	2.0461862
0.00060301508 	-0.02216918 	0.019491501 	2.0461862
0.00062311558 	-0.014035237 	0.015595789 	2.0802399
0.00064321608 	-0.014035237 	0.015595789 	2.0802399
0.00066331658 	-0.014035237 	0.015595789 	2.0802399
0.00068341709 	-0.018575283 	0.0059296371 	2.0552937
0.00070351759 	-0.018575283 	0.0059296371 	2.0552937
0.00072361809 	-0.015731317 	-0.0044652389 	1.9884728
0.00074371859 	-0.015731317 	-0.0044652389 	1.9884728
0.0007638191 	-0.015731317 	-0.0044652389 	1.9884728
0.0007839196 	-0.014108394 	-0.011046137 	1.9717493
0.0008040201 	-0.014108394 	-0.011046137 	1.9717493
0.0008241206 	-0.014108394 	-0.011046137 	1.9717493
0.00084422111 	-0.017668767 	0.0066299899 	1.9848096
0.00086432161 	-0.017668767 	0.0066299899 	1.9848096
0.00088442211 	-0.017668767 	0.0066299899 	1.9848096
0.00090452261 	-0.0097328837 	0.025178881 	1.9749737
0.00092462312 	-0.014551315 	0.025431755 	1.9816567
0.00094472362 	-0.014334786 	0.022814856 	1.9762762
0.00096482412 	-0.014334786 	0.022814856 	1.9762762
0.00098492462 	-0.014334786 	0.022814856 	1.9762762
0.0010050251 	-0.0036523851 	0.013630103 	1.9760917
0.0010251256 	-0.0036523851 	0.013630103 	1.9760917
0.0010452261 	-0.015453469 	0.016295265 	1.9775178
0.0010653266 	-0.017523323 	0.008202776 	1.9556509
0.0010854271 	-0.017523323 	0.008202776 	1.9556509
0.0011055276 	-0.017523323 	0.008202776 	1.9556509
0.0011256281 	-0.021648132 	0.005673301 	1.9668624
0.0011457286 	-0.012596961 	0.011247958 	1.9843779
0.0011658291 	-0.012596961 	0.011247958 	1.9843779
0.0011859296 	-0.0045482794 	-0.0022729802 	1.9611102
0.0012060302 	-0.020114273 	-0.0049815032 	1.9526449
0.0012261307 	-0.020114273 	-0.0049815032 	1.9526449
0.0012462312 	-0.0039326609 	-0.024288074 	1.9391702
0.0012663317 	-0.0039326609 	-0.024288074 	1.9391702
0.0012864322 	-0.0039326609 	-0.024288074 	1.9391702
0.0013065327 	-0.019901117 	-0.010547998 	2.0571108
0.0013266332 	-0.019901117 	-0.010547998 	2.0571108
0.0013467337 	-0.019901117 	-0.010547998 	2.0571108
0.0013668342 	-0.010544348 	0.0048091001 	2.022441
0.0013869347 	-0.010544348 	0.0048091001 	2.022441
0.0014070352 	-0.010544348 	0.0048091001 	2.022441
0.0014271357 	0.0010263801 	0.038185075 	1.9388974
0.0014472362 	0.0010263801 	0.038185075 	1.9388974
0.0014673367 	0.0010263801 	0.038185075 	1.9388974
0.0014874372 	-0.021497772 	0.033012365 	1.9784203
0.0015075377 	-0.021497772 	0.033012365 	1.9784203
0.0015276382 	-0.015618571 	0.017968222 	1.985606
0.0015477387 	-0.024433685 	0.019498541 	1.9905379
0.0015678392 	-0.024433685 	0.019498541 	1.9905379
0.0015879397 	-0.038102945 	-0.00050252706 	2.0001064
0.0016080402 	-0.038102945 	-0.00050252706 	2.0001064
0.0016281407 	-0.038102945 	-0.00050252706 	2.0001064
0.0016482412 	-0.019614553 	0.019682056 	1.9928474
0.0016683417 	-0.019614553 	0.019682056 	1.9928474
0.0016884422 	-0.010686269 	0.0046432159 	1.9694846
0.0017085427 	-0.010686269 	0.0046432159 	1.9694846
0.0017286432 	-0.010686269 	0.0046432159 	1.9694846
0.0017487437 	0.0070378558 	-0.020132023 	1.9694942
0.0017688442 	0.0070378558 	-0.020132023 	1.9694942
0.0017889447 	0.0070378558 	-0.020132023 	1.9694942
0.0018090452 	-0.0048229461 	-0.027704801 	1.9848595
0.0018291457 	-0.0048229461 	-0.027704801 	1.9848595
0.0018492462 	-0.0067973878 	-0.070536384 	1.9609934
0.0018693467 	-0.0067973878 	-0.070536384 	1.9609934
0.0018894472 	-0.0067973878 	-0.070536384 	1.9609934
0.0019095477 	0.0078544789 	-0.06593759 	1.9525686
0.0019296482 	0.0078544789 	-0.06593759 	1.9525686
0.0019497487 	0.0047007499 	-0.076346817 	1.9570046
0.0019698492 	0.0047007499 	-0.076346817 	1.9570046
0.0019899497 	0.0014965103 	-0.11230488 	1.9443541
0.0020100503 	0.0014965103 	-0.11230488 	1.9443541
0.0020301508 	0.0014965103 	-0.11230488 	1.9443541
0.0020502513 	0.0016958378 	-0.10433449 	1.9297953
0.0020703518 	0.0016958378 	-0.10433449 	1.9297953
0.0020904523 	0.0036317039 	-0.086869781 	1.9545798
0.0021105528 	0.0036317039 	-0.086869781 	1.9545798
0.0021306533 	0.0036317039 	-0.086869781 	1.9545798
0.0021507538 	0.02121008 	-0.069560103 	1.9272332
0.0021708543 	0.02121008 	-0.069560103 	1.9272332
0.0021909548 	0.035452269 	-0.038412873 	1.915937
0.0022110553 	0.035452269 	-0.038412873 	1.915937
0.0022311558 	0.045170752 	-0.019865296 	1.9307931
0.0022512563 	0.045170752 	-0.019865296 	1.9307931
0.0022713568 	0.047763501 	0.01785926 	1.9496317
0.0022914573 	0.047763501 	0.01785926 	1.9496317
0.0023115578 	0.047763501 	0.01785926 	1.9496317
0.0023316583 	0.065839662 	0.05441537 	1.9651
0.0023517588 	0.065839662 	0.05441537 	1.9651
0.0023718593 	0.076996648 	0.052720671 	1.9744807
0.0023919598 	0.076996648 	0.052720671 	1.9744807
0.0024120603 	0.09366139 	0.047267151 	1.990807
0.0024321608 	0.09366139 	0.047267151 	1.990807
0.0024522613 	0.10472576 	0.027004996 	2.0024242
0.0024723618 	0.10472576 	0.027004996 	2.0024242
0.0024924623 	0.092432202 	-0.00072758307 	1.9637558
0.0025125628 	0.092432202 	-0.00072758307 	1.9637558
0.0025326633 	0.077351596 	-0.0078369437 	2.026678
0.0025527638 	0.077351596 	-0.0078369437 	2.026678
0.0025728643 	0.062347018 	-0.0068097584 	2.0746062
0.0025929648 	0.062347018 	-0.0068097584 	2.0746062
0.0026130653 	0.052320628 	-0.017814805 	1.984958
0.0026331658 	0.052320628 	-0.017814805 	1.984958
0.0026532663 	0.043060321 	0.0070474632 	1.8642547
0.0026733668 	0.043060321 	0.0070474632 	1.8642547
0.0026934673 	0.02778652 	0.010164358 	1.7925636
0.0027135678 	0.02778652 	0.010164358 	1.7925636
0.0027336683 	0.0076427568 	0.00020369754 	1.7649175
0.0027537688 	0.0076427568 	0.00020369754 	1.7649175
0.0027738693 	0.0016444523 	-0.014036171 	1.770387
0.0027939698 	0.0016444523 	-0.014036171 	1.770387
0.0028140704 	0.0070375947 	-0.02801668 	1.7539236
0.0028341709 	0.0070375947 	-0.02801668 	1.7539236
0.0028542714 	0.0090204666 	-0.012030722 	1.7513633
0.0028743719 	0.012379485 	-0.012302696 	1.7407778
0.0028944724 	0.012379485 	-0.012302696 	1.7407778
0.0029145729 	0.011792568 	-0.015428416 	1.7375359
0.0029346734 	0.011792568 	-0.015428416 	1.7375359
0.0029547739 	0.014514289 	-0.0073479106 	1.7394108
0.0029748744 	0.014514289 	-0.0073479106 	1.7394108
0.0029949749 	0.014197981 	-0.029070895 	1.7453927
0.0030150754 	0.016842056 	-0.050754541 	1.7480523
0.0030351759 	0.016842056 	-0.050754541 	1.7480523
0.0030552764 	0.018062109 	-0.054741877 	1.7386784
0.0030753769 	0.018062109 	-0.054741877 	1.7386784
0.0030954774 	0.026704641 	-0.044250981 	1.7201556
0.0031155779 	0.023925616 	-0.046094016 	1.6927293
0.0031356784 	0.023925616 	-0.046094016 	1.6927293
0.0031557789 	0.025391504 	-0.051137974 	1.6794506
0.0031758794 	0.025391504 	-0.051137974 	1.6794506
0.0031959799 	0.029071448 	-0.035402469 	1.6734657
0.0032160804 	0.029138365 	-0.0059653752 	1.6578252
0.0032361809 	0.029138365 	-0.0059653752 	1.6578252
0.0032562814 	0.034823369 	-0.0090075592 	1.6610729
0.0032763819 	0.042708042 	-0.030336213 	1.6759969
0.0032964824 	0.042708042 	-0.030336213 	1.6759969
0.0033165829 	0.048188407 	-0.053619076 	1.6693529
0.0033366834 	0.050172473 	-0.097443703 	1.6638487
0.0033567839 	0.050172473 	-0.097443703 	1.6638487
0.0033768844 	0.043830517 	-0.14713361 	1.6797085
0.0033969849 	0.044672455 	-0.125253 	1.6849111
0.0034170854 	0.044672455 	-0.125253 	1.6849111
0.0034371859 	0.016249193 	-0.039409124 	1.6734145
0.0034572864 	0.020743259 	0.011513942 	1.7699416
0.0034773869 	0.042575286 	0.0016459881 	1.8780257
0.0034974874 	0.042575286 	0.0016459881 	1.8780257
0.0035175879 	0.054214544 	-0.037073382 	1.9252226
0.0035376884 	0.084834071 	-0.071704666 	1.9374465
0.0035577889 	0.1026388 	-0.065525376 	1.9176273
0.0035778894 	0.1026388 	-0.065525376 	1.9176273
0.0035979899 	0.10969138 	-0.049363938 	1.8871603
0.0036180905 	0.11075028 	-0.046207959 	1.8599916
0.003638191 	0.11380482 	-0.035240986 	1.8199076
0.0036582915 	0.11380482 	-0.035240986 	1.8199076
0.003678392 	0.10863366 	0.020874774 	1.7372366
0.0036984925 	0.093228477 	0.010162346 	1.6676873
0.003718593 	0.085892859 	-0.050546115 	1.6250046
0.0037386935 	0.071817657 	-0.069422179 	1.5650664
0.003758794 	0.059356113 	0.0080979867 	1.5345662
0.0037788945 	0.059356113 	0.0080979867 	1.5345662
0.003798995 	0.05036216 	0.067689956 	1.5299159
0.0038190955 	0.035711748 	0.10966939 	1.4647809
0.003839196 	0.030768166 	0.10831513 	1.4076713
0.0038592965 	0.0093759743 	0.047932542 	1.3651256
0.003879397 	0.02755314 	-0.050160863 	1.492246
0.0038994975 	0.003860464 	-0.14552986 	1.6207803
0.003919598 	0.013617395 	-0.34927899 	1.5069528
0.0039396985 	-0.0095605904 	-0.1807727 	1.4996591
0.003959799 	0.0007138687 	-0.010042712 	1.1037849
0.0039798995 	0.029376882 	0.0062855085 	0.66240122
0.004 	0.029376882 	0.0062855085 	0.66240122
