0 	0.0056625461 	0.0033380577 	2.0643594
2.0100503e-05 	0.0056625461 	0.0033380577 	2.0643594
4.0201005e-05 	0.0056625461 	0.0033380577 	2.0643594
6.0301508e-05 	-0.011206189 	-0.0077518273 	2.0526804
8.040201e-05 	-0.011206189 	-0.0077518273 	2.0526804
0.00010050251 	-0.011206189 	-0.0077518273 	2.0526804
0.00012060302 	-0.033220526 	0.031239674 	2.0250284
0.00014070352 	-0.033220526 	0.031239674 	2.0250284
0.00016080402 	-0.033220526 	0.031239674 	2.0250284
0.00018090452 	-0.028332241 	0.027573132 	2.0176637
0.00020100503 	-0.028332241 	0.027573132 	2.0176637
0.00022110553 	-0.028332241 	0.027573132 	2.0176637
0.00024120603 	-0.018960115 	0.010670296 	2.0567421
0.00026130653 	-0.02618795 	0.010868389 	2.0337092
0.00028140704 	-0.0066919498 	0.016819643 	2.0450069
0.00030150754 	-0.0066919498 	0.016819643 	2.0450069
0.00032160804 	-0.0066919498 	0.016819643 	2.0450069
0.00034170854 	0.0050248915 	0.022777156 	2.0437341
0.00036180905 	0.0007099077 	0.0071144748 	2.0627386
0.00038190955 	0.0007099077 	0.0071144748 	2.0627386
0.00040201005 	0.001406849 	0.027855466 	2.0733419
0.00042211055 	0.001406849 	0.027855466 	2.0733419
0.00044221106 	0.001406849 	0.027855466 	2.0733419
0.00046231156 	-0.0039827871 	0.042407978 	2.0651635
0.00048241206 	-0.0039827871 	0.042407978 	2.0651635
0.00050251256 	-0.011979793 	0.048860667 	2.072371
0.00052261307 	-0.011979793 	0.048860667 	2.072371
0.00054271357 	-0.011979793 	0.048860667 	2.072371
0.00056281407 	-0.027869839 	0.045015057 	2.0614355
0.00058291457 	-0.027869839 	0.045015057 	2.0614355
0.00060301508 	-0.014705402 	0.025990372 	2.0748528
0.00062311558 	-0.029356134 	0.038319047 	2.0769004
0.00064321608 	-0.029356134 	0.038319047 	2.0769004
0.00066331658 	-0.029356134 	0.038319047 	2.0769004
0.00068341709 	-0.040635846 	0.060744192 	2.0537119
0.00070351759 	-0.040635846 	0.060744192 	2.0537119
0.00072361809 	-0.04730991 	0.063171183 	2.02804
0.00074371859 	-0.04730991 	0.063171183 	2.02804
0.0007638191 	-0.04730991 	0.063171183 	2.02804
0.0007839196 	-0.055649511 	0.056596491 	1.9783895
0.0008040201 	-0.050971907 	0.066173837 	1.9507095
0.0008241206 	-0.050971907 	0.066173837 	1.9507095
0.00084422111 	-0.056528879 	0.073409699 	1.9021205
0.00086432161 	-0.056528879 	0.073409699 	1.9021205
0.00088442211 	-0.056528879 	0.073409699 	1.9021205
0.00090452261 	-0.062892768 	0.068495432 	1.8743157
0.00092462312 	-0.062892768 	0.068495432 	1.8743157
0.00094472362 	-0.056191756 	0.05205471 	1.9071868
0.00096482412 	-0.056191756 	0.05205471 	1.9071868
0.00098492462 	-0.056191756 	0.05205471 	1.9071868
0.0010050251 	-0.053279991 	0.04610726 	1.9064795
0.0010251256 	-0.053279991 	0.04610726 	1.9064795
0.0010452261 	-0.053279991 	0.04610726 	1.9064795
0.0010653266 	-0.057377382 	0.033833923 	1.8855716
0.0010854271 	-0.057377382 	0.033833923 	1.8855716
0.0011055276 	-0.057377382 	0.033833923 	1.8855716
0.0011256281 	-0.064250633 	0.021747889 	1.8749219
0.0011457286 	-0.064250633 	0.021747889 	1.8749219
0.0011658291 	-0.064250633 	0.021747889 	1.8749219
0.0011859296 	-0.066069454 	0.0022784982 	1.8730992
0.0012060302 	-0.066069454 	0.0022784982 	1.8730992
0.0012261307 	-0.066069454 	0.0022784982 	1.8730992
0.0012462312 	-0.060964071 	0.013425236 	1.8914368
0.0012663317 	-0.060964071 	0.013425236 	1.8914368
0.0012864322 	-0.060964071 	0.013425236 	1.8914368
0.0013065327 	-0.058494854 	0.0027978994 	1.8847341
0.0013266332 	-0.058494854 	0.0027978994 	1.8847341
0.0013467337 	-0.058494854 	0.0027978994 	1.8847341
0.0013668342 	-0.05698357 	-0.023360164 	1.8689506
0.0013869347 	-0.05698357 	-0.023360164 	1.8689506
0.0014070352 	-0.05698357 	-0.023360164 	1.8689506
0.0014271357 	-0.054086864 	-0.030197759 	1.8573705
0.0014472362 	-0.054086864 	-0.030197759 	1.8573705
0.0014673367 	-0.054086864 	-0.030197759 	1.8573705
0.0014874372 	-0.048182386 	-0.034734807 	1.8712769
0.0015075377 	-0.048182386 	-0.034734807 	1.8712769
0.0015276382 	-0.047122988 	-0.037974014 	1.8623013
0.0015477387 	-0.047122988 	-0.037974014 	1.8623013
0.0015678392 	-0.047122988 	-0.037974014 	1.8623013
0.0015879397 	-0.045679782 	-0.037754499 	1.8452725
0.0016080402 	-0.045679782 	-0.037754499 	1.8452725
0.0016281407 	-0.045679782 	-0.037754499 	1.8452725
0.0016482412 	-0.050907947 	-0.044531986 	1.8699263
0.0016683417 	-0.050907947 	-0.044531986 	1.8699263
0.0016884422 	-0.055306558 	-0.036944541 	1.9188029
0.0017085427 	-0.055306558 	-0.036944541 	1.9188029
0.0017286432 	-0.055306558 	-0.036944541 	1.9188029
0.0017487437 	-0.047400838 	-0.0088567224 	1.9209831
0.0017688442 	-0.047400838 	-0.0088567224 	1.9209831
0.0017889447 	-0.047400838 	-0.0088567224 	1.9209831
0.0018090452 	-0.047705037 	0.0029103987 	1.9085552
0.0018291457 	-0.047705037 	0.0029103987 	1.9085552
0.0018492462 	-0.056672716 	0.011891281 	1.894346
0.0018693467 	-0.056672716 	0.011891281 	1.894346
0.0018894472 	-0.056672716 	0.011891281 	1.894346
0.0019095477 	-0.057779607 	0.029721273 	1.8599115
0.0019296482 	-0.057779607 	0.029721273 	1.8599115
0.0019497487 	-0.063055885 	0.041667329 	1.8400261
0.0019698492 	-0.063055885 	0.041667329 	1.8400261
0.0019899497 	-0.083678356 	0.050932277 	1.8189513
0.0020100503 	-0.083678356 	0.050932277 	1.8189513
0.0020301508 	-0.083678356 	0.050932277 	1.8189513
0.0020502513 	-0.082727354 	0.036856365 	1.8158981
0.0020703518 	-0.082727354 	0.036856365 	1.8158981
0.0020904523 	-0.058264121 	-0.010316955 	1.8781581
0.0021105528 	-0.073572734 	0.022534774 	1.8975429
0.0021306533 	-0.073572734 	0.022534774 	1.8975429
0.0021507538 	-0.064114181 	0.022443304 	1.9181513
0.0021708543 	-0.064114181 	0.022443304 	1.9181513
0.0021909548 	-0.049097348 	0.031928645 	1.8663716
0.0022110553 	-0.049097348 	0.031928645 	1.8663716
0.0022311558 	-0.037794604 	0.031429274 	1.8438046
0.0022512563 	-0.037794604 	0.031429274 	1.8438046
0.0022713568 	-0.035122052 	0.013956204 	1.8714105
0.0022914573 	-0.035122052 	0.013956204 	1.8714105
0.0023115578 	-0.035122052 	0.013956204 	1.8714105
0.0023316583 	-0.032007665 	0.012387175 	1.9171673
0.0023517588 	-0.032007665 	0.012387175 	1.9171673
0.0023718593 	-0.038213357 	0.020490728 	1.9715973
0.0023919598 	-0.038213357 	0.020490728 	1.9715973
0.0024120603 	-0.031514706 	0.03223228 	1.9379911
0.0024321608 	-0.031514706 	0.03223228 	1.9379911
0.0024522613 	-0.030198992 	0.041762514 	1.8816299
0.0024723618 	-0.030198992 	0.041762514 	1.8816299
0.0024924623 	-0.037225435 	0.042542697 	1.8578023
0.0025125628 	-0.037225435 	0.042542697 	1.8578023
0.0025326633 	-0.032506931 	0.034750383 	1.8201639
0.0025527638 	-0.032506931 	0.034750383 	1.8201639
0.0025728643 	-0.048292868 	0.0067232931 	1.8077934
0.0025929648 	-0.048292868 	0.0067232931 	1.8077934
0.0026130653 	-0.065037742 	-0.031263761 	1.7984124
0.0026331658 	-0.065037742 	-0.031263761 	1.7984124
0.0026532663 	-0.071084784 	-0.057008609 	1.8006277
0.0026733668 	-0.071084784 	-0.057008609 	1.8006277
0.0026934673 	-0.073650224 	-0.079076007 	1.7955938
0.0027135678 	-0.073650224 	-0.079076007 	1.7955938
0.0027336683 	-0.066516582 	-0.052277542 	1.7926559
0.0027537688 	-0.066516582 	-0.052277542 	1.7926559
0.0027738693 	-0.062574241 	0.0057083203 	1.7421506
0.0027939698 	-0.062574241 	0.0057083203 	1.7421506
0.0028140704 	-0.07975456 	0.032878701 	1.7331697
0.0028341709 	-0.07975456 	0.032878701 	1.7331697
0.0028542714 	-0.086961927 	-0.0017536542 	1.7786635
0.0028743719 	-0.087346268 	-0.01741147 	1.7933029
0.0028944724 	-0.087346268 	-0.01741147 	1.7933029
0.0029145729 	-0.081878957 	-0.0055975246 	1.7945598
0.0029346734 	-0.081878957 	-0.0055975246 	1.7945598
0.0029547739 	-0.072218452 	-0.0015591806 	1.7702782
0.0029748744 	-0.072218452 	-0.0015591806 	1.7702782
0.0029949749 	-0.066362397 	0.0085419184 	1.7730346
0.0030150754 	-0.055912641 	0.040035646 	1.7155051
0.0030351759 	-0.055912641 	0.040035646 	1.7155051
0.0030552764 	-0.066572452 	0.030284413 	1.6488065
0.0030753769 	-0.066572452 	0.030284413 	1.6488065
0.0030954774 	-0.057955124 	0.0042323617 	1.6389433
0.0031155779 	-0.041339129 	-0.0096498271 	1.6428485
0.0031356784 	-0.041339129 	-0.0096498271 	1.6428485
0.0031557789 	-0.030473937 	0.011314576 	1.7315731
0.0031758794 	-0.030473937 	0.011314576 	1.7315731
0.0031959799 	-0.029373986 	0.006900869 	1.8098421
0.0032160804 	-0.032679336 	-0.044290018 	1.8041727
0.0032361809 	-0.032679336 	-0.044290018 	1.8041727
0.0032562814 	-0.031553031 	-0.024772693 	1.6665624
0.0032763819 	-0.028828235 	0.016828823 	1.6160135
0.0032964824 	-0.028828235 	0.016828823 	1.6160135
0.0033165829 	-0.031494061 	0.097841375 	1.6914639
0.0033366834 	0.0026051979 	0.12112365 	1.7169576
0.0033567839 	0.0026051979 	0.12112365 	1.7169576
0.0033768844 	0.022404248 	0.061109026 	1.7599171
0.0033969849 	0.03486981 	-0.00083836708 	1.7955631
0.0034170854 	0.03486981 	-0.00083836708 	1.7955631
0.0034371859 	0.030748061 	-0.031184664 	1.7967094
0.0034572864 	0.033516578 	-0.027098232 	1.7942255
0.0034773869 	0.028971029 	-0.017299437 	1.7661551
0.0034974874 	0.028971029 	-0.017299437 	1.7661551
0.0035175879 	0.02881696 	0.007534664 	1.7413732
0.0035376884 	0.028981207 	0.027524038 	1.7160814
0.0035577889 	0.027439374 	0.036662431 	1.7136837
0.0035778894 	0.027439374 	0.036662431 	1.7136837
0.0035979899 	0.022032414 	0.042598401 	1.7477451
0.0036180905 	0.013950696 	0.049920617 	1.792765
0.003638191 	0.012417089 	0.070425769 	1.7849632
0.0036582915 	0.012417089 	0.070425769 	1.7849632
0.003678392 	0.017920751 	0.1023285 	1.7763191
0.0036984925 	0.028290353 	0.078544596 	1.7572062
0.003718593 	0.032504664 	-0.010519109 	1.7261799
0.0037386935 	0.033145236 	-0.090100238 	1.6736485
0.003758794 	0.0297246 	-0.16560107 	1.7160032
0.0037788945 	0.0297246 	-0.16560107 	1.7160032
0.003798995 	0.00057026901 	-0.17363175 	1.8130801
0.0038190955 	-0.024545095 	-0.1110616 	1.7945177
0.003839196 	-0.036345089 	-0.019256631 	1.7145466
0.0038592965 	-0.041131381 	0.081877626 	1.6492048
0.003879397 	-0.01803554 	0.079786256 	1.6090011
0.0038994975 	-0.034115906 	-0.035322199 	1.5512751
0.003919598 	0.014265545 	-0.092761713 	1.2711616
0.0039396985 	0.0028720195 	0.15749489 	1.1986387
0.003959799 	0.033364882 	-0.17984992 	0.8876994
0.0039798995 	-0.0088080509 	-0.2259175 	0.60431286
0.004 	-0.0088080509 	-0.2259175 	0.60431286
