0 	0.026906821 	-0.0027519641 	2.0580767
2.0100503e-05 	0.026906821 	-0.0027519641 	2.0580767
4.0201005e-05 	0.026906821 	-0.0027519641 	2.0580767
6.0301508e-05 	0.025762682 	0.0060087029 	2.0476046
8.040201e-05 	0.025762682 	0.0060087029 	2.0476046
0.00010050251 	0.025762682 	0.0060087029 	2.0476046
0.00012060302 	0.024384213 	0.010283538 	2.0553914
0.00014070352 	0.024384213 	0.010283538 	2.0553914
0.00016080402 	0.024384213 	0.010283538 	2.0553914
0.00018090452 	0.031444076 	-0.014047229 	2.0548289
0.00020100503 	0.031444076 	-0.014047229 	2.0548289
0.00022110553 	0.031444076 	-0.014047229 	2.0548289
0.00024120603 	0.041591275 	-0.0093147689 	2.0667003
0.00026130653 	0.046134124 	0.0066471497 	2.0596387
0.00028140704 	0.044271763 	0.014750961 	2.0333138
0.00030150754 	0.044271763 	0.014750961 	2.0333138
0.00032160804 	0.044271763 	0.014750961 	2.0333138
0.00034170854 	0.041665195 	0.031919451 	2.0251657
0.00036180905 	0.041665195 	0.031919451 	2.0251657
0.00038190955 	0.041665195 	0.031919451 	2.0251657
0.00040201005 	0.038058703 	0.046406963 	2.0323623
0.00042211055 	0.038058703 	0.046406963 	2.0323623
0.00044221106 	0.038058703 	0.046406963 	2.0323623
0.00046231156 	0.033933717 	0.031212441 	2.0529169
0.00048241206 	0.033933717 	0.031212441 	2.0529169
0.00050251256 	0.017772078 	0.016148287 	2.0749427
0.00052261307 	0.017772078 	0.016148287 	2.0749427
0.00054271357 	0.017772078 	0.016148287 	2.0749427
0.00056281407 	-0.0057391947 	0.0042138518 	2.0615808
0.00058291457 	-0.0057391947 	0.0042138518 	2.0615808
0.00060301508 	-0.0057391947 	0.0042138518 	2.0615808
0.00062311558 	-0.019029314 	-0.014652799 	2.0711457
0.00064321608 	-0.019029314 	-0.014652799 	2.0711457
0.00066331658 	-0.019029314 	-0.014652799 	2.0711457
0.00068341709 	-0.018309898 	-0.036543561 	2.0850162
0.00070351759 	-0.018309898 	-0.036543561 	2.0850162
0.00072361809 	-0.016252852 	-0.049272699 	2.1005693
0.00074371859 	-0.016252852 	-0.049272699 	2.1005693
0.0007638191 	-0.030646438 	-0.048765174 	2.1071531
0.0007839196 	-0.026203323 	-0.062788633 	2.1085576
0.0008040201 	-0.026203323 	-0.062788633 	2.1085576
0.0008241206 	-0.026203323 	-0.062788633 	2.1085576
0.00084422111 	-0.026962265 	-0.060973782 	2.1030281
0.00086432161 	-0.026962265 	-0.060973782 	2.1030281
0.00088442211 	-0.026962265 	-0.060973782 	2.1030281
0.00090452261 	-0.011084283 	-0.054901756 	2.1311011
0.00092462312 	-0.011084283 	-0.054901756 	2.1311011
0.00094472362 	-0.01111284 	-0.05130395 	2.1156126
0.00096482412 	-0.01111284 	-0.05130395 	2.1156126
0.00098492462 	-0.01111284 	-0.05130395 	2.1156126
0.0010050251 	-0.0053957891 	-0.036753475 	2.1122989
0.0010251256 	-0.0019922403 	-0.029164474 	2.0911036
0.0010452261 	-0.0019922403 	-0.029164474 	2.0911036
0.0010653266 	0.0087381719 	-0.02257779 	2.0475197
0.0010854271 	0.0087381719 	-0.02257779 	2.0475197
0.0011055276 	0.0087381719 	-0.02257779 	2.0475197
0.0011256281 	0.0056597706 	-0.037655248 	2.0281111
0.0011457286 	0.0056597706 	-0.037655248 	2.0281111
0.0011658291 	0.0056597706 	-0.037655248 	2.0281111
0.0011859296 	-0.036080826 	-0.033203689 	1.9991846
0.0012060302 	-0.010000271 	-0.050760868 	2.0219482
0.0012261307 	-0.010000271 	-0.050760868 	2.0219482
0.0012462312 	-0.01096483 	-0.019122255 	1.9967024
0.0012663317 	-0.01096483 	-0.019122255 	1.9967024
0.0012864322 	-0.01096483 	-0.019122255 	1.9967024
0.0013065327 	-0.012577049 	0.013634229 	2.0093165
0.0013266332 	-0.012577049 	0.013634229 	2.0093165
0.0013467337 	-0.012577049 	0.013634229 	2.0093165
0.0013668342 	-0.0095158905 	0.028090988 	1.9561021
0.0013869347 	-0.0095158905 	0.028090988 	1.9561021
0.0014070352 	-0.0095158905 	0.028090988 	1.9561021
0.0014271357 	-0.023938443 	0.019388002 	1.9711174
0.0014472362 	-0.023938443 	0.019388002 	1.9711174
0.0014673367 	-0.023938443 	0.019388002 	1.9711174
0.0014874372 	-0.037641895 	0.028556939 	1.9361916
0.0015075377 	-0.037641895 	0.028556939 	1.9361916
0.0015276382 	-0.047378771 	0.027545393 	1.9206984
0.0015477387 	-0.047378771 	0.027545393 	1.9206984
0.0015678392 	-0.047378771 	0.027545393 	1.9206984
0.0015879397 	-0.06420294 	0.013318724 	1.9268953
0.0016080402 	-0.06420294 	0.013318724 	1.9268953
0.0016281407 	-0.06420294 	0.013318724 	1.9268953
0.0016482412 	-0.077941339 	0.0074865141 	1.964049
0.0016683417 	-0.077941339 	0.0074865141 	1.964049
0.0016884422 	-0.071840438 	-0.0083917887 	1.9823378
0.0017085427 	-0.071840438 	-0.0083917887 	1.9823378
0.0017286432 	-0.071840438 	-0.0083917887 	1.9823378
0.0017487437 	-0.067296963 	-0.0022107432 	1.9657946
0.0017688442 	-0.067296963 	-0.0022107432 	1.9657946
0.0017889447 	-0.067296963 	-0.0022107432 	1.9657946
0.0018090452 	-0.051651983 	-0.0049348381 	1.9621271
0.0018291457 	-0.051651983 	-0.0049348381 	1.9621271
0.0018492462 	-0.035508303 	-0.019112895 	1.9392395
0.0018693467 	-0.035508303 	-0.019112895 	1.9392395
0.0018894472 	-0.035508303 	-0.019112895 	1.9392395
0.0019095477 	-0.04916581 	-0.039097218 	1.9468906
0.0019296482 	-0.04916581 	-0.039097218 	1.9468906
0.0019497487 	-0.053484993 	-0.026123955 	1.902127
0.0019698492 	-0.053484993 	-0.026123955 	1.902127
0.0019899497 	-0.061170234 	-0.01134367 	1.8993416
0.0020100503 	-0.061170234 	-0.01134367 	1.8993416
0.0020301508 	-0.061170234 	-0.01134367 	1.8993416
0.0020502513 	-0.055982981 	-0.03102647 	1.9406437
0.0020703518 	-0.055982981 	-0.03102647 	1.9406437
0.0020904523 	-0.054269638 	-0.015216092 	1.9300741
0.0021105528 	-0.054269638 	-0.015216092 	1.9300741
0.0021306533 	-0.054269638 	-0.015216092 	1.9300741
0.0021507538 	-0.059380484 	0.025970804 	1.9279399
0.0021708543 	-0.059380484 	0.025970804 	1.9279399
0.0021909548 	-0.061484479 	0.013253518 	1.9309158
0.0022110553 	-0.061484479 	0.013253518 	1.9309158
0.0022311558 	-0.067762674 	0.021043614 	1.9592144
0.0022512563 	-0.067762674 	0.021043614 	1.9592144
0.0022713568 	-0.066869046 	0.023017051 	1.9519697
0.0022914573 	-0.066869046 	0.023017051 	1.9519697
0.0023115578 	-0.066869046 	0.023017051 	1.9519697
0.0023316583 	-0.068460597 	-0.0058664547 	1.9229256
0.0023517588 	-0.068460597 	-0.0058664547 	1.9229256
0.0023718593 	-0.061756614 	-0.029055805 	1.9317149
0.0023919598 	-0.061756614 	-0.029055805 	1.9317149
0.0024120603 	-0.042468986 	-0.028183707 	1.9356165
0.0024321608 	-0.042468986 	-0.028183707 	1.9356165
0.0024522613 	-0.02625957 	-0.023425919 	1.9215602
0.0024723618 	-0.02625957 	-0.023425919 	1.9215602
0.0024924623 	-0.014128945 	0.01325626 	1.9166352
0.0025125628 	-0.014128945 	0.01325626 	1.9166352
0.0025326633 	-0.0085012693 	0.010272861 	1.8778416
0.0025527638 	-0.0085012693 	0.010272861 	1.8778416
0.0025728643 	-0.01118337 	0.012453314 	1.8938758
0.0025929648 	-0.01118337 	0.012453314 	1.8938758
0.0026130653 	-0.018126557 	0.017798595 	1.8989995
0.0026331658 	-0.018126557 	0.017798595 	1.8989995
0.0026532663 	-0.020924472 	0.0099811255 	1.8864836
0.0026733668 	-0.020924472 	0.0099811255 	1.8864836
0.0026934673 	-0.020785151 	0.015685465 	1.8941798
0.0027135678 	-0.020785151 	0.015685465 	1.8941798
0.0027336683 	-0.022844091 	0.038563169 	1.9071276
0.0027537688 	-0.022844091 	0.038563169 	1.9071276
0.0027738693 	-0.024157006 	0.030089739 	1.8997267
0.0027939698 	-0.024157006 	0.030089739 	1.8997267
0.0028140704 	-0.025232195 	0.023862378 	1.8660613
0.0028341709 	-0.025232195 	0.023862378 	1.8660613
0.0028542714 	-0.023184638 	0.036207509 	1.8458828
0.0028743719 	-0.021677105 	0.050664867 	1.8566357
0.0028944724 	-0.021677105 	0.050664867 	1.8566357
0.0029145729 	-0.01908766 	0.026538901 	1.8485868
0.0029346734 	-0.01908766 	0.026538901 	1.8485868
0.0029547739 	-0.020569494 	0.014368907 	1.8369085
0.0029748744 	-0.020569494 	0.014368907 	1.8369085
0.0029949749 	-0.024401694 	0.028262492 	1.788661
0.0030150754 	-0.02830788 	0.034843968 	1.7006161
0.0030351759 	-0.02830788 	0.034843968 	1.7006161
0.0030552764 	-0.026484247 	0.02493344 	1.6951917
0.0030753769 	-0.026484247 	0.02493344 	1.6951917
0.0030954774 	-0.019980644 	0.032284603 	1.8269703
0.0031155779 	-0.018274559 	0.045537325 	1.9544692
0.0031356784 	-0.018274559 	0.045537325 	1.9544692
0.0031557789 	-0.028408739 	0.082840565 	1.8612654
0.0031758794 	-0.028408739 	0.082840565 	1.8612654
0.0031959799 	-0.024803703 	0.080208141 	1.7404475
0.0032160804 	-0.019461383 	0.03025871 	1.7460478
0.0032361809 	-0.019461383 	0.03025871 	1.7460478
0.0032562814 	-0.030701173 	-0.01389634 	1.7621738
0.0032763819 	-0.036209133 	-0.026023084 	1.7750535
0.0032964824 	-0.036209133 	-0.026023084 	1.7750535
0.0033165829 	-0.037220493 	-0.044640377 	1.7799322
0.0033366834 	-0.031168852 	-0.049272639 	1.7980884
0.0033567839 	-0.031168852 	-0.049272639 	1.7980884
0.0033768844 	-0.027038486 	-0.055715812 	1.8004284
0.0033969849 	-0.031094943 	-0.052562745 	1.800133
0.0034170854 	-0.031094943 	-0.052562745 	1.800133
0.0034371859 	-0.038655297 	-0.054490357 	1.8069127
0.0034572864 	-0.041453268 	-0.066214627 	1.7680587
0.0034773869 	-0.038116179 	-0.051219129 	1.6868919
0.0034974874 	-0.038116179 	-0.051219129 	1.6868919
0.0035175879 	-0.025549531 	-0.020322998 	1.618016
0.0035376884 	-0.018333654 	0.029483203 	1.5965753
0.0035577889 	-0.0099132796 	0.055867243 	1.5999464
0.0035778894 	-0.0099132796 	0.055867243 	1.5999464
0.0035979899 	-0.00446309 	0.015162958 	1.5688756
0.0036180905 	-0.0090893457 	-0.031224982 	1.5159718
0.003638191 	-0.015987553 	-0.062074665 	1.5108336
0.0036582915 	-0.015987553 	-0.062074665 	1.5108336
0.003678392 	-0.019041417 	-0.033657305 	1.5443241
0.0036984925 	-0.030903783 	0.049093829 	1.5784785
0.003718593 	-0.039030353 	0.095518013 	1.581336
0.0037386935 	-0.039787552 	0.044252967 	1.5312975
0.003758794 	-0.038553689 	-0.0065454262 	1.5148594
0.0037788945 	-0.038553689 	-0.0065454262 	1.5148594
0.003798995 	-0.041862272 	0.0093729846 	1.4861319
0.0038190955 	-0.044841077 	0.01353106 	1.4411305
0.003839196 	-0.050222081 	-0.080407994 	1.453198
0.0038592965 	-0.048087566 	-0.19993616 	1.4487237
0.003879397 	-0.01590127 	-0.10064591 	1.3418602
0.0038994975 	-0.0077092513 	0.13280546 	1.1529657
0.003919598 	-0.019771756 	-0.0027725608 	1.2320161
0.0039396985 	0.0014242087 	-0.30173995 	1.2679975
0.003959799 	-0.010598301 	-0.50103078 	0.84519364
0.0039798995 	-0.0031725022 	0.049648143 	0.36522332
0.004 	-0.0031725022 	0.049648143 	0.36522332
