0 	0.019985535 	-0.031920195 	2.0304309
2.0100503e-05 	0.019985535 	-0.031920195 	2.0304309
4.0201005e-05 	0.019985535 	-0.031920195 	2.0304309
6.0301508e-05 	0.020966114 	-0.021181246 	2.0420474
8.040201e-05 	0.020966114 	-0.021181246 	2.0420474
0.00010050251 	0.020966114 	-0.021181246 	2.0420474
0.00012060302 	0.025593311 	-0.030108083 	2.0126083
0.00014070352 	0.025593311 	-0.030108083 	2.0126083
0.00016080402 	0.025593311 	-0.030108083 	2.0126083
0.00018090452 	0.041482767 	-0.016447824 	2.0371801
0.00020100503 	0.041482767 	-0.016447824 	2.0371801
0.00022110553 	0.041482767 	-0.016447824 	2.0371801
0.00024120603 	0.044064223 	-0.0064587994 	2.0542098
0.00026130653 	0.027668484 	-0.017390147 	2.0096379
0.00028140704 	0.03417082 	-0.0036166733 	2.0260828
0.00030150754 	0.03417082 	-0.0036166733 	2.0260828
0.00032160804 	0.03417082 	-0.0036166733 	2.0260828
0.00034170854 	0.041893376 	0.0053447815 	2.0334402
0.00036180905 	0.053034063 	0.015888418 	2.0653504
0.00038190955 	0.053034063 	0.015888418 	2.0653504
0.00040201005 	0.054315478 	0.02461288 	2.0723762
0.00042211055 	0.054315478 	0.02461288 	2.0723762
0.00044221106 	0.054315478 	0.02461288 	2.0723762
0.00046231156 	0.059182504 	0.03258626 	2.0805707
0.00048241206 	0.059182504 	0.03258626 	2.0805707
0.00050251256 	0.063668686 	0.037676498 	2.0756289
0.00052261307 	0.063668686 	0.037676498 	2.0756289
0.00054271357 	0.063668686 	0.037676498 	2.0756289
0.00056281407 	0.068036919 	0.0445268 	2.0739158
0.00058291457 	0.068036919 	0.0445268 	2.0739158
0.00060301508 	0.068036919 	0.0445268 	2.0739158
0.00062311558 	0.070390679 	0.051516873 	2.0635451
0.00064321608 	0.07801248 	0.0467327 	2.0668815
0.00066331658 	0.07801248 	0.0467327 	2.0668815
0.00068341709 	0.09011589 	0.04799928 	2.066626
0.00070351759 	0.09011589 	0.04799928 	2.066626
0.00072361809 	0.080775986 	0.04099094 	2.0530155
0.00074371859 	0.068847977 	0.038665457 	2.0581809
0.0007638191 	0.068847977 	0.038665457 	2.0581809
0.0007839196 	0.063881523 	0.035166008 	2.0599548
0.0008040201 	0.063881523 	0.035166008 	2.0599548
0.0008241206 	0.063881523 	0.035166008 	2.0599548
0.00084422111 	0.059792729 	0.03268567 	2.0724779
0.00086432161 	0.059792729 	0.03268567 	2.0724779
0.00088442211 	0.059792729 	0.03268567 	2.0724779
0.00090452261 	0.081789479 	0.030336379 	2.0796649
0.00092462312 	0.081789479 	0.030336379 	2.0796649
0.00094472362 	0.079187495 	0.041176037 	2.1046762
0.00096482412 	0.079187495 	0.041176037 	2.1046762
0.00098492462 	0.079187495 	0.041176037 	2.1046762
0.0010050251 	0.069554688 	0.040674877 	2.1069905
0.0010251256 	0.031260561 	0.03217828 	2.0995813
0.0010452261 	0.031260561 	0.03217828 	2.0995813
0.0010653266 	0.020633051 	0.032701866 	2.0937216
0.0010854271 	0.020633051 	0.032701866 	2.0937216
0.0011055276 	0.020633051 	0.032701866 	2.0937216
0.0011256281 	0.026602479 	0.032394551 	2.0224712
0.0011457286 	0.026602479 	0.032394551 	2.0224712
0.0011658291 	0.026602479 	0.032394551 	2.0224712
0.0011859296 	0.020685592 	0.034892999 	1.9601113
0.0012060302 	0.020685592 	0.034892999 	1.9601113
0.0012261307 	0.020685592 	0.034892999 	1.9601113
0.0012462312 	0.016191717 	0.025761868 	2.0214148
0.0012663317 	0.016191717 	0.025761868 	2.0214148
0.0012864322 	0.016191717 	0.025761868 	2.0214148
0.0013065327 	0.019259299 	0.023731705 	2.0337885
0.0013266332 	0.019259299 	0.023731705 	2.0337885
0.0013467337 	0.019259299 	0.023731705 	2.0337885
0.0013668342 	0.02069685 	0.034766129 	2.0368337
0.0013869347 	0.02069685 	0.034766129 	2.0368337
0.0014070352 	0.02069685 	0.034766129 	2.0368337
0.0014271357 	0.02341853 	0.023922919 	2.0422947
0.0014472362 	0.02341853 	0.023922919 	2.0422947
0.0014673367 	0.02341853 	0.023922919 	2.0422947
0.0014874372 	0.0044166203 	0.0046207157 	2.0221002
0.0015075377 	0.0044166203 	0.0046207157 	2.0221002
0.0015276382 	0.0059731511 	-0.0054925422 	2.0302966
0.0015477387 	0.0059731511 	-0.0054925422 	2.0302966
0.0015678392 	0.0059731511 	-0.0054925422 	2.0302966
0.0015879397 	-0.0031336174 	-0.0067988387 	2.0198316
0.0016080402 	-0.0031336174 	-0.0067988387 	2.0198316
0.0016281407 	-0.0031336174 	-0.0067988387 	2.0198316
0.0016482412 	-0.0044484089 	-0.015014082 	2.0291229
0.0016683417 	-0.0044484089 	-0.015014082 	2.0291229
0.0016884422 	-0.010370272 	-0.056922268 	2.0176458
0.0017085427 	-0.010370272 	-0.056922268 	2.0176458
0.0017286432 	-0.010370272 	-0.056922268 	2.0176458
0.0017487437 	-0.0039825759 	-0.090093175 	1.9966625
0.0017688442 	-0.0039825759 	-0.090093175 	1.9966625
0.0017889447 	-0.0039825759 	-0.090093175 	1.9966625
0.0018090452 	-0.025112633 	-0.083551795 	2.0410674
0.0018291457 	-0.025112633 	-0.083551795 	2.0410674
0.0018492462 	-0.01632554 	-0.040551691 	2.0313037
0.0018693467 	-0.01632554 	-0.040551691 	2.0313037
0.0018894472 	-0.01632554 	-0.040551691 	2.0313037
0.0019095477 	-0.0063546081 	-0.032909505 	2.0236276
0.0019296482 	-0.0063546081 	-0.032909505 	2.0236276
0.0019497487 	0.019840539 	-0.026179412 	2.0243279
0.0019698492 	0.019840539 	-0.026179412 	2.0243279
0.0019899497 	0.016576951 	-0.0059753839 	2.0456708
0.0020100503 	0.016576951 	-0.0059753839 	2.0456708
0.0020301508 	0.016576951 	-0.0059753839 	2.0456708
0.0020502513 	0.034785341 	0.02507715 	2.0038309
0.0020703518 	0.034785341 	0.02507715 	2.0038309
0.0020904523 	0.018517406 	0.011402836 	2.0243756
0.0021105528 	0.018517406 	0.011402836 	2.0243756
0.0021306533 	0.018517406 	0.011402836 	2.0243756
0.0021507538 	0.011921977 	0.0097866848 	1.9915263
0.0021708543 	0.011921977 	0.0097866848 	1.9915263
0.0021909548 	0.019425852 	0.024549572 	1.9906427
0.0022110553 	0.019425852 	0.024549572 	1.9906427
0.0022311558 	0.015364837 	0.025287279 	1.9416565
0.0022512563 	0.015364837 	0.025287279 	1.9416565
0.0022713568 	0.021140378 	0.057154798 	1.8900505
0.0022914573 	0.021140378 	0.057154798 	1.8900505
0.0023115578 	0.021140378 	0.057154798 	1.8900505
0.0023316583 	0.020277446 	0.034480807 	1.8980689
0.0023517588 	0.020277446 	0.034480807 	1.8980689
0.0023718593 	0.036248905 	0.017171567 	1.9475791
0.0023919598 	0.036248905 	0.017171567 	1.9475791
0.0024120603 	0.044734064 	0.04885721 	1.9790415
0.0024321608 	0.044734064 	0.04885721 	1.9790415
0.0024522613 	0.061167262 	0.029854701 	1.9694048
0.0024723618 	0.061167262 	0.029854701 	1.9694048
0.0024924623 	0.07016606 	0.022718227 	1.9427398
0.0025125628 	0.07016606 	0.022718227 	1.9427398
0.0025326633 	0.055891597 	0.021626188 	1.9643061
0.0025527638 	0.055891597 	0.021626188 	1.9643061
0.0025728643 	0.066719904 	0.026481597 	1.9837692
0.0025929648 	0.066719904 	0.026481597 	1.9837692
0.0026130653 	0.047394815 	0.020250228 	1.9543167
0.0026331658 	0.047394815 	0.020250228 	1.9543167
0.0026532663 	0.029742837 	-0.0083910996 	1.9263469
0.0026733668 	0.029742837 	-0.0083910996 	1.9263469
0.0026934673 	0.02378685 	-0.00032621094 	1.9887576
0.0027135678 	0.02378685 	-0.00032621094 	1.9887576
0.0027336683 	0.02478741 	0.0022381476 	2.0913471
0.0027537688 	0.02478741 	0.0022381476 	2.0913471
0.0027738693 	0.024011695 	-0.0063249589 	2.0947397
0.0027939698 	0.024011695 	-0.0063249589 	2.0947397
0.0028140704 	0.036528674 	-0.02169606 	2.070165
0.0028341709 	0.036528674 	-0.02169606 	2.070165
0.0028542714 	0.033757393 	-0.048985271 	1.9647928
0.0028743719 	0.036299598 	-0.052542995 	1.951636
0.0028944724 	0.036299598 	-0.052542995 	1.951636
0.0029145729 	0.038569668 	-0.01134214 	1.9714735
0.0029346734 	0.038569668 	-0.01134214 	1.9714735
0.0029547739 	0.034155112 	0.0093980303 	1.9723863
0.0029748744 	0.034155112 	0.0093980303 	1.9723863
0.0029949749 	0.036457273 	0.0050945086 	1.9650697
0.0030150754 	0.026578761 	-0.00039792166 	1.9162953
0.0030351759 	0.026578761 	-0.00039792166 	1.9162953
0.0030552764 	0.030989974 	-0.016625367 	1.8730048
0.0030753769 	0.030989974 	-0.016625367 	1.8730048
0.0030954774 	0.031667067 	-0.025103639 	1.8358708
0.0031155779 	0.028284269 	-0.034290399 	1.8264857
0.0031356784 	0.028284269 	-0.034290399 	1.8264857
0.0031557789 	0.02649377 	-0.035623029 	1.8178626
0.0031758794 	0.02649377 	-0.035623029 	1.8178626
0.0031959799 	0.021947748 	-0.044598675 	1.8152799
0.0032160804 	0.020837702 	-0.060847285 	1.8068806
0.0032361809 	0.020837702 	-0.060847285 	1.8068806
0.0032562814 	0.025125841 	-0.067843239 	1.8104955
0.0032763819 	0.021473891 	-0.072220005 	1.841883
0.0032964824 	0.021473891 	-0.072220005 	1.841883
0.0033165829 	0.013286888 	-0.069739391 	1.8848936
0.0033366834 	0.0030929268 	-0.064975078 	1.9022402
0.0033567839 	0.0030929268 	-0.064975078 	1.9022402
0.0033768844 	-0.0069213726 	-0.080640602 	1.8823932
0.0033969849 	-0.021500346 	-0.090011565 	1.8829482
0.0034170854 	-0.021500346 	-0.090011565 	1.8829482
0.0034371859 	-0.048874 	-0.088574697 	1.9290993
0.0034572864 	-0.059459114 	-0.064343011 	1.917477
0.0034773869 	-0.056404231 	-0.019770951 	1.8436293
0.0034974874 	-0.056404231 	-0.019770951 	1.8436293
0.0035175879 	-0.057661381 	-0.029092512 	1.7751876
0.0035376884 	-0.054736001 	-0.059832444 	1.7456762
0.0035577889 	-0.042321632 	-0.035412372 	1.7604966
0.0035778894 	-0.042321632 	-0.035412372 	1.7604966
0.0035979899 	-0.021858675 	0.0279958 	1.7371366
0.0036180905 	-0.0067350563 	0.11123352 	1.6700409
0.003638191 	-0.0012378293 	0.17223943 	1.6194791
0.0036582915 	-0.0012378293 	0.17223943 	1.6194791
0.003678392 	0.00034970525 	0.18861408 	1.6253995
0.0036984925 	-0.0050674331 	0.16923474 	1.6612234
0.003718593 	-0.0063719548 	0.1209412 	1.698856
0.0037386935 	-0.012101851 	0.042136054 	1.730975
0.003758794 	-0.014585965 	-0.00029381294 	1.7425026
0.0037788945 	-0.014585965 	-0.00029381294 	1.7425026
0.003798995 	0.0061274116 	0.01973605 	1.7976732
0.0038190955 	0.019487863 	0.073362704 	1.8264445
0.003839196 	0.045690104 	-0.019628423 	1.7730252
0.0038592965 	0.045333869 	0.072269542 	1.7423361
0.003879397 	0.050361669 	0.042787754 	1.7949854
0.0038994975 	0.018191405 	-0.1258156 	1.9378308
0.003919598 	0.05586592 	-0.0030141051 	1.793144
0.0039396985 	0.0017138905 	0.20019324 	1.5100496
0.003959799 	0.0084375064 	-0.022127594 	0.83985139
0.0039798995 	-0.022449932 	0.1113505 	0.40609504
0.004 	-0.022449932 	0.1113505 	0.40609504
