0 	-0.047454883 	0.05174689 	2.0233968
2.0100503e-05 	-0.061917684 	-0.032956346 	2.0168643
4.0201005e-05 	-0.061917684 	-0.032956346 	2.0168643
6.0301508e-05 	-0.037074937 	-0.043998547 	2.0208031
8.040201e-05 	-0.037074937 	-0.043998547 	2.0208031
0.00010050251 	-0.037074937 	-0.043998547 	2.0208031
0.00012060302 	-0.034679054 	-0.049990816 	2.018452
0.00014070352 	-0.034679054 	-0.049990816 	2.018452
0.00016080402 	-0.034679054 	-0.049990816 	2.018452
0.00018090452 	-0.027289724 	-0.051513774 	2.0369325
0.00020100503 	-0.027289724 	-0.051513774 	2.0369325
0.00022110553 	-0.027289724 	-0.051513774 	2.0369325
0.00024120603 	-0.026086709 	-0.04593185 	2.0622369
0.00026130653 	-0.026086709 	-0.04593185 	2.0622369
0.00028140704 	-0.020307459 	-0.033441271 	2.074263
0.00030150754 	-0.020307459 	-0.033441271 	2.074263
0.00032160804 	-0.020307459 	-0.033441271 	2.074263
0.00034170854 	-0.010619826 	-0.014487013 	2.1002509
0.00036180905 	-0.010619826 	-0.014487013 	2.1002509
0.00038190955 	-0.010619826 	-0.014487013 	2.1002509
0.00040201005 	0.0035480441 	0.01925084 	2.1256487
0.00042211055 	0.0035480441 	0.01925084 	2.1256487
0.00044221106 	0.0035480441 	0.01925084 	2.1256487
0.00046231156 	0.013861444 	0.046556936 	2.0794688
0.00048241206 	0.013861444 	0.046556936 	2.0794688
0.00050251256 	0.01363777 	0.065207375 	2.0957735
0.00052261307 	0.01363777 	0.065207375 	2.0957735
0.00054271357 	0.01363777 	0.065207375 	2.0957735
0.00056281407 	0.013925935 	0.061410093 	2.0838772
0.00058291457 	0.013925935 	0.061410093 	2.0838772
0.00060301508 	0.013925935 	0.061410093 	2.0838772
0.00062311558 	0.0097182373 	0.06176141 	2.0690936
0.00064321608 	0.0097182373 	0.06176141 	2.0690936
0.00066331658 	0.0097182373 	0.06176141 	2.0690936
0.00068341709 	0.0079287442 	0.048628666 	2.0611871
0.00070351759 	0.0079287442 	0.048628666 	2.0611871
0.00072361809 	0.0036197933 	0.031296272 	2.0578707
0.00074371859 	0.0036197933 	0.031296272 	2.0578707
0.0007638191 	0.0036197933 	0.031296272 	2.0578707
0.0007839196 	0.0035831014 	0.025015235 	2.021646
0.0008040201 	0.0035831014 	0.025015235 	2.021646
0.0008241206 	0.0035831014 	0.025015235 	2.021646
0.00084422111 	0.0073041052 	0.01881244 	1.9862912
0.00086432161 	0.0073041052 	0.01881244 	1.9862912
0.00088442211 	0.0073041052 	0.01881244 	1.9862912
0.00090452261 	0.0016332142 	0.016538105 	1.9685119
0.00092462312 	0.0016332142 	0.016538105 	1.9685119
0.00094472362 	-0.019382507 	0.0071178977 	2.0020683
0.00096482412 	-0.019382507 	0.0071178977 	2.0020683
0.00098492462 	-0.019382507 	0.0071178977 	2.0020683
0.0010050251 	-0.021318573 	0.011234094 	1.9846221
0.0010251256 	-0.021318573 	0.011234094 	1.9846221
0.0010452261 	-0.021318573 	0.011234094 	1.9846221
0.0010653266 	-0.0068255699 	0.0040735689 	2.0069826
0.0010854271 	-0.021059443 	-0.01863708 	2.0200324
0.0011055276 	-0.021059443 	-0.01863708 	2.0200324
0.0011256281 	-0.0023763559 	0.0053647256 	2.0360178
0.0011457286 	-0.0023763559 	0.0053647256 	2.0360178
0.0011658291 	-0.0023763559 	0.0053647256 	2.0360178
0.0011859296 	0.00066207043 	0.023195166 	1.9343747
0.0012060302 	0.00066207043 	0.023195166 	1.9343747
0.0012261307 	0.00066207043 	0.023195166 	1.9343747
0.0012462312 	-0.00079582807 	0.011755827 	1.9659032
0.0012663317 	-0.00079582807 	0.011755827 	1.9659032
0.0012864322 	-0.00079582807 	0.011755827 	1.9659032
0.0013065327 	-0.0094277135 	0.00097461737 	1.9712213
0.0013266332 	-0.0094277135 	0.00097461737 	1.9712213
0.0013467337 	-0.0094277135 	0.00097461737 	1.9712213
0.0013668342 	-0.0134984 	-0.00089617421 	1.944239
0.0013869347 	-0.0134984 	-0.00089617421 	1.944239
0.0014070352 	-0.0134984 	-0.00089617421 	1.944239
0.0014271357 	-0.016878502 	-0.014558037 	1.9525454
0.0014472362 	-0.016878502 	-0.014558037 	1.9525454
0.0014673367 	-0.016878502 	-0.014558037 	1.9525454
0.0014874372 	-0.022671547 	-0.023810047 	1.9176508
0.0015075377 	-0.022671547 	-0.023810047 	1.9176508
0.0015276382 	-0.040728749 	-0.0069228204 	1.9068856
0.0015477387 	-0.040728749 	-0.0069228204 	1.9068856
0.0015678392 	-0.040728749 	-0.0069228204 	1.9068856
0.0015879397 	-0.034925022 	0.027081782 	1.928404
0.0016080402 	-0.034925022 	0.027081782 	1.928404
0.0016281407 	-0.034925022 	0.027081782 	1.928404
0.0016482412 	-0.043899852 	0.07287197 	1.9502583
0.0016683417 	-0.043899852 	0.07287197 	1.9502583
0.0016884422 	-0.051605738 	0.099874836 	1.9236774
0.0017085427 	-0.051605738 	0.099874836 	1.9236774
0.0017286432 	-0.051605738 	0.099874836 	1.9236774
0.0017487437 	-0.046759469 	0.065208622 	1.8768496
0.0017688442 	-0.046759469 	0.065208622 	1.8768496
0.0017889447 	-0.046759469 	0.065208622 	1.8768496
0.0018090452 	-0.036898696 	0.066763801 	1.9265767
0.0018291457 	-0.036898696 	0.066763801 	1.9265767
0.0018492462 	-0.021888692 	0.057118463 	1.9488448
0.0018693467 	-0.021888692 	0.057118463 	1.9488448
0.0018894472 	-0.021888692 	0.057118463 	1.9488448
0.0019095477 	-0.0026456576 	0.01960679 	1.9366095
0.0019296482 	-0.0026456576 	0.01960679 	1.9366095
0.0019497487 	0.009048519 	-0.0010886058 	1.9483322
0.0019698492 	0.009048519 	-0.0010886058 	1.9483322
0.0019899497 	0.009048519 	-0.0010886058 	1.9483322
0.0020100503 	0.019616433 	-0.032613544 	1.9602697
0.0020301508 	0.019616433 	-0.032613544 	1.9602697
0.0020502513 	0.0089429081 	-0.066551374 	1.9566192
0.0020703518 	0.0089429081 	-0.066551374 	1.9566192
0.0020904523 	-0.0075487308 	-0.051996659 	1.925613
0.0021105528 	-0.0075487308 	-0.051996659 	1.925613
0.0021306533 	-0.0075487308 	-0.051996659 	1.925613
0.0021507538 	-0.01188848 	-0.031190456 	1.8683428
0.0021708543 	-0.01188848 	-0.031190456 	1.8683428
0.0021909548 	-0.020738102 	-0.03205563 	1.8578934
0.0022110553 	-0.020738102 	-0.03205563 	1.8578934
0.0022311558 	-0.024173033 	-0.0098960526 	1.8845791
0.0022512563 	-0.024173033 	-0.0098960526 	1.8845791
0.0022713568 	-0.035270501 	0.015850196 	1.8981023
0.0022914573 	-0.035270501 	0.015850196 	1.8981023
0.0023115578 	-0.035270501 	0.015850196 	1.8981023
0.0023316583 	-0.041980002 	-0.0084708139 	1.8612529
0.0023517588 	-0.041980002 	-0.0084708139 	1.8612529
0.0023718593 	-0.027023837 	-0.027144845 	1.8267067
0.0023919598 	-0.027023837 	-0.027144845 	1.8267067
0.0024120603 	-0.034087233 	-0.028279509 	1.8252178
0.0024321608 	-0.034087233 	-0.028279509 	1.8252178
0.0024522613 	-0.047203284 	-0.032079038 	1.8233202
0.0024723618 	-0.047203284 	-0.032079038 	1.8233202
0.0024924623 	-0.038128272 	-0.028257321 	1.8232873
0.0025125628 	-0.038128272 	-0.028257321 	1.8232873
0.0025326633 	-0.036577471 	-0.033107458 	1.8308527
0.0025527638 	-0.036577471 	-0.033107458 	1.8308527
0.0025728643 	-0.038339278 	-0.031289172 	1.8319125
0.0025929648 	-0.038339278 	-0.031289172 	1.8319125
0.0026130653 	-0.039278362 	-0.060971666 	1.8610996
0.0026331658 	-0.039278362 	-0.060971666 	1.8610996
0.0026532663 	-0.031145824 	-0.078909712 	1.8736875
0.0026733668 	-0.031145824 	-0.078909712 	1.8736875
0.0026934673 	-0.025217631 	-0.054237049 	1.8169449
0.0027135678 	-0.025217631 	-0.054237049 	1.8169449
0.0027336683 	-0.028174761 	-0.042024483 	1.7803565
0.0027537688 	-0.028174761 	-0.042024483 	1.7803565
0.0027738693 	-0.0095636546 	-0.059306495 	1.7969907
0.0027939698 	-0.0095636546 	-0.059306495 	1.7969907
0.0028140704 	-0.0011238454 	-0.01523109 	1.7831378
0.0028341709 	-0.0011238454 	-0.01523109 	1.7831378
0.0028542714 	0.021558916 	-0.0073259074 	1.7269885
0.0028743719 	-0.016127225 	-0.057196016 	1.7865008
0.0028944724 	-0.016127225 	-0.057196016 	1.7865008
0.0029145729 	-0.01779747 	-0.089595354 	1.722465
0.0029346734 	-0.01779747 	-0.089595354 	1.722465
0.0029547739 	-0.025486715 	-0.027785009 	1.7364757
0.0029748744 	-0.025486715 	-0.027785009 	1.7364757
0.0029949749 	-0.040553507 	0.007501866 	1.7910646
0.0030150754 	-0.016210634 	0.0025988944 	1.7492872
0.0030351759 	-0.016210634 	0.0025988944 	1.7492872
0.0030552764 	-0.0072032667 	0.012544342 	1.777149
0.0030753769 	-0.0072032667 	0.012544342 	1.777149
0.0030954774 	0.015826499 	0.023952865 	1.8219569
0.0031155779 	0.024179196 	-0.022323459 	1.81439
0.0031356784 	0.024179196 	-0.022323459 	1.81439
0.0031557789 	0.035791737 	-0.0056685122 	1.8438204
0.0031758794 	0.035791737 	-0.0056685122 	1.8438204
0.0031959799 	0.033703203 	0.058748316 	1.8788857
0.0032160804 	0.046079923 	0.10756863 	1.8757961
0.0032361809 	0.046079923 	0.10756863 	1.8757961
0.0032562814 	0.04904576 	0.081048367 	1.8754541
0.0032763819 	0.057075814 	0.039955494 	1.8620279
0.0032964824 	0.057075814 	0.039955494 	1.8620279
0.0033165829 	0.058544714 	0.021298973 	1.8363894
0.0033366834 	0.054747736 	0.026908387 	1.8076946
0.0033567839 	0.054747736 	0.026908387 	1.8076946
0.0033768844 	0.055695582 	0.0063574367 	1.7720377
0.0033969849 	0.057633828 	-0.02312129 	1.7265916
0.0034170854 	0.057633828 	-0.02312129 	1.7265916
0.0034371859 	0.04901506 	-0.022870047 	1.7251132
0.0034572864 	0.049465021 	-0.0082029644 	1.7147337
0.0034773869 	0.05754601 	-0.015866703 	1.7321432
0.0034974874 	0.05754601 	-0.015866703 	1.7321432
0.0035175879 	0.063215978 	-0.054770621 	1.7688146
0.0035376884 	0.062521019 	-0.10327505 	1.7920201
0.0035577889 	0.056910952 	-0.16058282 	1.8550679
0.0035778894 	0.056910952 	-0.16058282 	1.8550679
0.0035979899 	0.047549259 	-0.17658596 	1.9017818
0.0036180905 	0.03128159 	-0.098197839 	1.8727031
0.003638191 	0.02323718 	0.010556949 	1.8662919
0.0036582915 	0.02323718 	0.010556949 	1.8662919
0.003678392 	0.020711638 	0.047741792 	1.8487745
0.0036984925 	0.022532122 	0.043957987 	1.796304
0.003718593 	0.016872229 	0.018412804 	1.7896239
0.0037386935 	-0.015881797 	-0.020290239 	1.7888841
0.003758794 	-0.036221795 	-0.054180481 	1.72647
0.0037788945 	-0.036221795 	-0.054180481 	1.72647
0.003798995 	-0.027777635 	0.022846003 	1.6005593
0.0038190955 	-0.026268058 	0.065792899 	1.5328741
0.003839196 	-0.027065212 	0.0095374174 	1.4765011
0.0038592965 	-0.024020482 	-0.034342436 	1.3655363
0.003879397 	-0.027339307 	0.032470092 	1.2917606
0.0038994975 	-0.030529435 	0.16489374 	1.3336138
0.003919598 	-0.031196997 	0.16642975 	1.3651756
0.0039396985 	-0.011792503 	0.15237908 	1.3055023
0.003959799 	0.010469893 	-0.03751495 	1.2307424
0.0039798995 	-0.017780183 	0.044598801 	0.31945219
0.004 	-0.017780183 	0.044598801 	0.31945219
