0 	0.040958195 	-0.02994956 	2.0665579
2.0100503e-05 	0.03305173 	0.046704647 	2.0565738
4.0201005e-05 	0.03305173 	0.046704647 	2.0565738
6.0301508e-05 	0.0065168111 	0.038326554 	2.0471414
8.040201e-05 	0.0065168111 	0.038326554 	2.0471414
0.00010050251 	0.0065168111 	0.038326554 	2.0471414
0.00012060302 	0.013452971 	0.030981591 	2.0467403
0.00014070352 	0.013452971 	0.030981591 	2.0467403
0.00016080402 	0.013452971 	0.030981591 	2.0467403
0.00018090452 	0.010763878 	0.026470819 	2.0315859
0.00020100503 	0.010763878 	0.026470819 	2.0315859
0.00022110553 	0.010763878 	0.026470819 	2.0315859
0.00024120603 	0.0048493971 	0.028021991 	2.0240251
0.00026130653 	0.0048493971 	0.028021991 	2.0240251
0.00028140704 	-0.013709088 	0.032233364 	2.0594033
0.00030150754 	-0.013709088 	0.032233364 	2.0594033
0.00032160804 	-0.013709088 	0.032233364 	2.0594033
0.00034170854 	-0.023283568 	0.015840162 	2.0886277
0.00036180905 	-0.023283568 	0.015840162 	2.0886277
0.00038190955 	-0.023283568 	0.015840162 	2.0886277
0.00040201005 	-0.016672239 	0.015195195 	2.075809
0.00042211055 	-0.016672239 	0.015195195 	2.075809
0.00044221106 	-0.016672239 	0.015195195 	2.075809
0.00046231156 	-0.0087310905 	0.0078647741 	2.0675619
0.00048241206 	-0.0087310905 	0.0078647741 	2.0675619
0.00050251256 	0.0030422595 	0.0025490476 	2.0359922
0.00052261307 	0.0030422595 	0.0025490476 	2.0359922
0.00054271357 	0.0030422595 	0.0025490476 	2.0359922
0.00056281407 	0.019267659 	0.010747889 	2.015084
0.00058291457 	0.019267659 	0.010747889 	2.015084
0.00060301508 	0.019267659 	0.010747889 	2.015084
0.00062311558 	0.01685421 	0.012743746 	1.9925473
0.00064321608 	0.01685421 	0.012743746 	1.9925473
0.00066331658 	0.01685421 	0.012743746 	1.9925473
0.00068341709 	0.017445093 	0.0091887785 	1.9973112
0.00070351759 	0.017445093 	0.0091887785 	1.9973112
0.00072361809 	0.011248715 	0.022616435 	2.0404959
0.00074371859 	0.011248715 	0.022616435 	2.0404959
0.0007638191 	0.011248715 	0.022616435 	2.0404959
0.0007839196 	0.0075578154 	0.030027356 	2.0624269
0.0008040201 	0.0075578154 	0.030027356 	2.0624269
0.0008241206 	0.0075578154 	0.030027356 	2.0624269
0.00084422111 	0.011998862 	0.035990339 	2.0487003
0.00086432161 	0.011998862 	0.035990339 	2.0487003
0.00088442211 	0.011998862 	0.035990339 	2.0487003
0.00090452261 	0.0047108273 	0.04028909 	2.0256145
0.00092462312 	0.0047108273 	0.04028909 	2.0256145
0.00094472362 	-0.015889407 	0.047521509 	2.0004437
0.00096482412 	-0.015889407 	0.047521509 	2.0004437
0.00098492462 	-0.015889407 	0.047521509 	2.0004437
0.0010050251 	-0.040691324 	0.042275199 	2.0476097
0.0010251256 	-0.040691324 	0.042275199 	2.0476097
0.0010452261 	-0.040691324 	0.042275199 	2.0476097
0.0010653266 	-0.061108379 	0.046468062 	2.0245362
0.0010854271 	-0.061108379 	0.046468062 	2.0245362
0.0011055276 	-0.061108379 	0.046468062 	2.0245362
0.0011256281 	-0.065288333 	0.046107037 	2.0154652
0.0011457286 	-0.065288333 	0.046107037 	2.0154652
0.0011658291 	-0.065288333 	0.046107037 	2.0154652
0.0011859296 	-0.057934975 	0.051351734 	1.9889635
0.0012060302 	-0.057934975 	0.051351734 	1.9889635
0.0012261307 	-0.057934975 	0.051351734 	1.9889635
0.0012462312 	-0.040905405 	0.070708578 	1.9752892
0.0012663317 	-0.040905405 	0.070708578 	1.9752892
0.0012864322 	-0.040905405 	0.070708578 	1.9752892
0.0013065327 	-0.026344069 	0.07310363 	1.9815909
0.0013266332 	-0.026344069 	0.07310363 	1.9815909
0.0013467337 	-0.026344069 	0.07310363 	1.9815909
0.0013668342 	-0.024580346 	0.035983156 	1.9941375
0.0013869347 	-0.024580346 	0.035983156 	1.9941375
0.0014070352 	-0.024580346 	0.035983156 	1.9941375
0.0014271357 	-0.0039997434 	-0.00034386362 	2.0139551
0.0014472362 	-0.0039997434 	-0.00034386362 	2.0139551
0.0014673367 	-0.0039997434 	-0.00034386362 	2.0139551
0.0014874372 	0.0048464425 	-0.0082107818 	2.0432815
0.0015075377 	0.0048464425 	-0.0082107818 	2.0432815
0.0015276382 	-0.0049624805 	-0.012861654 	2.0382949
0.0015477387 	-0.0049624805 	-0.012861654 	2.0382949
0.0015678392 	-0.0049624805 	-0.012861654 	2.0382949
0.0015879397 	-0.010329835 	0.024509855 	2.0328823
0.0016080402 	-0.010329835 	0.024509855 	2.0328823
0.0016281407 	-0.010329835 	0.024509855 	2.0328823
0.0016482412 	-0.025077889 	0.058155878 	2.0243982
0.0016683417 	-0.025077889 	0.058155878 	2.0243982
0.0016884422 	-0.036277535 	0.047742784 	1.9917548
0.0017085427 	-0.036277535 	0.047742784 	1.9917548
0.0017286432 	-0.036277535 	0.047742784 	1.9917548
0.0017487437 	-0.036593222 	0.025547884 	1.9981032
0.0017688442 	-0.036593222 	0.025547884 	1.9981032
0.0017889447 	-0.036593222 	0.025547884 	1.9981032
0.0018090452 	-0.029132779 	0.0017667631 	2.0160683
0.0018291457 	-0.029132779 	0.0017667631 	2.0160683
0.0018492462 	-0.025691644 	-0.035600715 	1.9907406
0.0018693467 	-0.025691644 	-0.035600715 	1.9907406
0.0018894472 	-0.025691644 	-0.035600715 	1.9907406
0.0019095477 	-0.034077779 	-0.047996389 	1.9451337
0.0019296482 	-0.034077779 	-0.047996389 	1.9451337
0.0019497487 	-0.035488625 	-0.012362933 	1.9100505
0.0019698492 	-0.035488625 	-0.012362933 	1.9100505
0.0019899497 	-0.035488625 	-0.012362933 	1.9100505
0.0020100503 	-0.014322045 	-0.00029308577 	1.8899758
0.0020301508 	-0.014322045 	-0.00029308577 	1.8899758
0.0020502513 	-0.019382403 	-0.0046484052 	1.8964319
0.0020703518 	-0.019382403 	-0.0046484052 	1.8964319
0.0020904523 	-0.020060394 	-0.010515031 	1.8838568
0.0021105528 	-0.020060394 	-0.010515031 	1.8838568
0.0021306533 	-0.020060394 	-0.010515031 	1.8838568
0.0021507538 	-0.021078789 	-0.028909249 	1.8621247
0.0021708543 	-0.021078789 	-0.028909249 	1.8621247
0.0021909548 	-0.01725057 	-0.026708717 	1.8735732
0.0022110553 	-0.01725057 	-0.026708717 	1.8735732
0.0022311558 	-0.022051994 	-0.01181045 	1.9065894
0.0022512563 	-0.022051994 	-0.01181045 	1.9065894
0.0022713568 	-0.02390328 	-0.044722909 	1.9091085
0.0022914573 	-0.02390328 	-0.044722909 	1.9091085
0.0023115578 	-0.02390328 	-0.044722909 	1.9091085
0.0023316583 	-0.038016145 	-0.082856254 	1.8966979
0.0023517588 	-0.038016145 	-0.082856254 	1.8966979
0.0023718593 	-0.045311725 	-0.10288773 	1.8697503
0.0023919598 	-0.045311725 	-0.10288773 	1.8697503
0.0024120603 	-0.044539177 	-0.10532424 	1.8171777
0.0024321608 	-0.044539177 	-0.10532424 	1.8171777
0.0024522613 	-0.04131085 	-0.073011818 	1.750164
0.0024723618 	-0.04131085 	-0.073011818 	1.750164
0.0024924623 	-0.040988194 	-0.043692315 	1.7858027
0.0025125628 	-0.040988194 	-0.043692315 	1.7858027
0.0025326633 	-0.033522438 	-0.02262371 	1.8365397
0.0025527638 	-0.033522438 	-0.02262371 	1.8365397
0.0025728643 	-0.033701531 	-0.0013639732 	1.8734798
0.0025929648 	-0.033701531 	-0.0013639732 	1.8734798
0.0026130653 	-0.029654525 	-0.0093059541 	1.9012863
0.0026331658 	-0.029654525 	-0.0093059541 	1.9012863
0.0026532663 	-0.025923391 	-0.019066246 	1.9005508
0.0026733668 	-0.025923391 	-0.019066246 	1.9005508
0.0026934673 	-0.021654945 	-0.0065804109 	1.8704019
0.0027135678 	-0.021654945 	-0.0065804109 	1.8704019
0.0027336683 	-0.015956816 	0.021039002 	1.8500917
0.0027537688 	-0.015956816 	0.021039002 	1.8500917
0.0027738693 	-0.016803282 	0.019633818 	1.8687652
0.0027939698 	-0.016803282 	0.019633818 	1.8687652
0.0028140704 	-0.020188033 	0.028805724 	1.8789693
0.0028341709 	-0.020188033 	0.028805724 	1.8789693
0.0028542714 	-0.028561059 	0.048797551 	1.8341033
0.0028743719 	-0.031043071 	0.047562174 	1.8122779
0.0028944724 	-0.031043071 	0.047562174 	1.8122779
0.0029145729 	-0.046660064 	0.045864589 	1.8612101
0.0029346734 	-0.046660064 	0.045864589 	1.8612101
0.0029547739 	-0.044039714 	0.061551548 	1.8687898
0.0029748744 	-0.044039714 	0.061551548 	1.8687898
0.0029949749 	-0.044893813 	0.058400881 	1.8764923
0.0030150754 	-0.030500219 	0.089898968 	1.8560799
0.0030351759 	-0.030500219 	0.089898968 	1.8560799
0.0030552764 	-0.01816517 	0.097825698 	1.8264803
0.0030753769 	-0.01816517 	0.097825698 	1.8264803
0.0030954774 	-0.0046314757 	0.099800905 	1.8551018
0.0031155779 	0.0051010777 	0.10568273 	1.901275
0.0031356784 	0.0051010777 	0.10568273 	1.901275
0.0031557789 	-0.0026583823 	0.089606943 	1.8536099
0.0031758794 	-0.0026583823 	0.089606943 	1.8536099
0.0031959799 	-0.010440863 	0.046698473 	1.8200686
0.0032160804 	-0.008660199 	-0.008591616 	1.7803247
0.0032361809 	-0.008660199 	-0.008591616 	1.7803247
0.0032562814 	-0.015784179 	-0.039270216 	1.7263092
0.0032763819 	-0.02820001 	-0.034716806 	1.7059837
0.0032964824 	-0.02820001 	-0.034716806 	1.7059837
0.0033165829 	-0.027795354 	-0.0090741274 	1.6899894
0.0033366834 	-0.028398544 	0.023671358 	1.6485815
0.0033567839 	-0.028398544 	0.023671358 	1.6485815
0.0033768844 	-0.021028058 	0.057970113 	1.6083228
0.0033969849 	-0.019788029 	0.082480121 	1.6169542
0.0034170854 	-0.019788029 	0.082480121 	1.6169542
0.0034371859 	-0.015763595 	0.057936204 	1.6119649
0.0034572864 	-0.017699641 	0.040484269 	1.6288828
0.0034773869 	-0.022535957 	0.070143093 	1.6446405
0.0034974874 	-0.022535957 	0.070143093 	1.6446405
0.0035175879 	-0.018524153 	0.11128662 	1.5962794
0.0035376884 	-0.022447136 	0.11038451 	1.5791686
0.0035577889 	-0.01846011 	0.072865954 	1.6202853
0.0035778894 	-0.01846011 	0.072865954 	1.6202853
0.0035979899 	0.00023710634 	0.061108544 	1.7047
0.0036180905 	0.01572335 	0.048656504 	1.7252781
0.003638191 	0.035451472 	0.04787141 	1.7402303
0.0036582915 	0.035451472 	0.04787141 	1.7402303
0.003678392 	0.03745094 	0.043388712 	1.7557723
0.0036984925 	0.041892834 	0.048747894 	1.7775185
0.003718593 	0.03784823 	0.084359236 	1.8290731
0.0037386935 	0.01715966 	0.14013944 	1.8508629
0.003758794 	0.0062906518 	0.13532247 	1.7725462
0.0037788945 	0.0062906518 	0.13532247 	1.7725462
0.003798995 	0.0059888573 	0.1012219 	1.6893988
0.0038190955 	0.0025293831 	-0.0011174026 	1.6345939
0.003839196 	0.00056831496 	0.0008020966 	1.5166944
0.0038592965 	-0.0059027018 	0.16080605 	1.3729794
0.003879397 	-0.008153259 	0.22583985 	1.3982592
0.0038994975 	-0.0093046919 	0.19159863 	1.3296245
0.003919598 	-0.023478896 	0.2102636 	1.3111196
0.0039396985 	-0.030291528 	0.14426504 	1.5753295
0.003959799 	-0.012965896 	-0.17158789 	1.4807661
0.0039798995 	-0.013385142 	-0.088041994 	0.45428913
0.004 	-0.013385142 	-0.088041994 	0.45428913
