0 	-0.048421359 	0.0029504023 	2.0277881
2.0100503e-05 	0.0091276822 	-0.038950919 	2.0365484
4.0201005e-05 	0.0091276822 	-0.038950919 	2.0365484
6.0301508e-05 	0.041873626 	-0.022951955 	2.0491771
8.040201e-05 	0.041873626 	-0.022951955 	2.0491771
0.00010050251 	0.041873626 	-0.022951955 	2.0491771
0.00012060302 	0.044684744 	-0.0084427225 	2.0310572
0.00014070352 	0.044684744 	-0.0084427225 	2.0310572
0.00016080402 	0.044684744 	-0.0084427225 	2.0310572
0.00018090452 	0.056825125 	0.0049581154 	2.0287453
0.00020100503 	0.056825125 	0.0049581154 	2.0287453
0.00022110553 	0.056825125 	0.0049581154 	2.0287453
0.00024120603 	0.058533011 	0.0118272 	2.036081
0.00026130653 	0.058533011 	0.0118272 	2.036081
0.00028140704 	0.052043308 	0.0046207529 	2.023323
0.00030150754 	0.052043308 	0.0046207529 	2.023323
0.00032160804 	0.052043308 	0.0046207529 	2.023323
0.00034170854 	0.044064871 	-0.011280553 	2.0216234
0.00036180905 	0.044064871 	-0.011280553 	2.0216234
0.00038190955 	0.044064871 	-0.011280553 	2.0216234
0.00040201005 	0.030566076 	-0.011832382 	1.9818002
0.00042211055 	0.030566076 	-0.011832382 	1.9818002
0.00044221106 	0.030566076 	-0.011832382 	1.9818002
0.00046231156 	0.026742258 	0.011270506 	1.9923271
0.00048241206 	0.026742258 	0.011270506 	1.9923271
0.00050251256 	0.01380778 	0.020565302 	2.0142075
0.00052261307 	0.01380778 	0.020565302 	2.0142075
0.00054271357 	0.01380778 	0.020565302 	2.0142075
0.00056281407 	0.0022795103 	0.031090825 	2.0484534
0.00058291457 	0.0022795103 	0.031090825 	2.0484534
0.00060301508 	0.0022795103 	0.031090825 	2.0484534
0.00062311558 	-0.0023912846 	0.034796255 	2.0469572
0.00064321608 	-0.0023912846 	0.034796255 	2.0469572
0.00066331658 	-0.0023912846 	0.034796255 	2.0469572
0.00068341709 	-0.011419848 	0.037510136 	2.0528485
0.00070351759 	-0.011419848 	0.037510136 	2.0528485
0.00072361809 	-0.01368043 	0.043312666 	2.0496945
0.00074371859 	-0.01368043 	0.043312666 	2.0496945
0.0007638191 	-0.01368043 	0.043312666 	2.0496945
0.0007839196 	-0.02486335 	0.030204158 	2.0280555
0.0008040201 	-0.02486335 	0.030204158 	2.0280555
0.0008241206 	-0.02486335 	0.030204158 	2.0280555
0.00084422111 	-0.041855325 	0.025509508 	2.0003454
0.00086432161 	-0.041855325 	0.025509508 	2.0003454
0.00088442211 	-0.041855325 	0.025509508 	2.0003454
0.00090452261 	-0.043122757 	0.039081233 	1.9815556
0.00092462312 	-0.043122757 	0.039081233 	1.9815556
0.00094472362 	-0.036558325 	0.04452295 	1.9995115
0.00096482412 	-0.036558325 	0.04452295 	1.9995115
0.00098492462 	-0.036558325 	0.04452295 	1.9995115
0.0010050251 	-0.026950862 	0.034098631 	2.0025703
0.0010251256 	-0.026950862 	0.034098631 	2.0025703
0.0010452261 	-0.026950862 	0.034098631 	2.0025703
0.0010653266 	-0.025515087 	0.056408784 	1.9936777
0.0010854271 	-0.025515087 	0.056408784 	1.9936777
0.0011055276 	-0.025515087 	0.056408784 	1.9936777
0.0011256281 	-0.027646336 	0.065664208 	2.0378136
0.0011457286 	-0.027646336 	0.065664208 	2.0378136
0.0011658291 	-0.027646336 	0.065664208 	2.0378136
0.0011859296 	-0.037573405 	0.054451973 	2.0668452
0.0012060302 	-0.037573405 	0.054451973 	2.0668452
0.0012261307 	-0.037573405 	0.054451973 	2.0668452
0.0012462312 	-0.04995205 	0.066848251 	2.0821928
0.0012663317 	-0.04995205 	0.066848251 	2.0821928
0.0012864322 	-0.04995205 	0.066848251 	2.0821928
0.0013065327 	-0.072793861 	0.081026408 	2.055204
0.0013266332 	-0.072793861 	0.081026408 	2.055204
0.0013467337 	-0.072793861 	0.081026408 	2.055204
0.0013668342 	-0.081017608 	0.081549856 	1.9408526
0.0013869347 	-0.081017608 	0.081549856 	1.9408526
0.0014070352 	-0.081017608 	0.081549856 	1.9408526
0.0014271357 	-0.095183602 	0.069537487 	1.8596898
0.0014472362 	-0.095183602 	0.069537487 	1.8596898
0.0014673367 	-0.095183602 	0.069537487 	1.8596898
0.0014874372 	-0.094033188 	0.052979237 	1.9009236
0.0015075377 	-0.094033188 	0.052979237 	1.9009236
0.0015276382 	-0.07844403 	0.032578983 	1.9087479
0.0015477387 	-0.07844403 	0.032578983 	1.9087479
0.0015678392 	-0.07844403 	0.032578983 	1.9087479
0.0015879397 	-0.069277072 	0.0086563776 	1.8887675
0.0016080402 	-0.069277072 	0.0086563776 	1.8887675
0.0016281407 	-0.069277072 	0.0086563776 	1.8887675
0.0016482412 	-0.074087887 	-0.0010824153 	1.8951209
0.0016683417 	-0.074087887 	-0.0010824153 	1.8951209
0.0016884422 	-0.066967208 	-0.0047087678 	1.8297829
0.0017085427 	-0.066967208 	-0.0047087678 	1.8297829
0.0017286432 	-0.066967208 	-0.0047087678 	1.8297829
0.0017487437 	-0.061296117 	0.0091559834 	1.8288104
0.0017688442 	-0.061296117 	0.0091559834 	1.8288104
0.0017889447 	-0.061296117 	0.0091559834 	1.8288104
0.0018090452 	-0.050070079 	0.00082326957 	1.8196817
0.0018291457 	-0.050070079 	0.00082326957 	1.8196817
0.0018492462 	-0.048181497 	-0.0017862509 	1.8190461
0.0018693467 	-0.048181497 	-0.0017862509 	1.8190461
0.0018894472 	-0.048181497 	-0.0017862509 	1.8190461
0.0019095477 	-0.042604928 	-0.024586017 	1.8253104
0.0019296482 	-0.042604928 	-0.024586017 	1.8253104
0.0019497487 	-0.037627444 	-0.051721058 	1.8274206
0.0019698492 	-0.037627444 	-0.051721058 	1.8274206
0.0019899497 	-0.037627444 	-0.051721058 	1.8274206
0.0020100503 	-0.044409926 	-0.02887921 	1.8556473
0.0020301508 	-0.044409926 	-0.02887921 	1.8556473
0.0020502513 	-0.040541217 	-0.00063555421 	1.8814256
0.0020703518 	-0.040541217 	-0.00063555421 	1.8814256
0.0020904523 	-0.031985406 	-0.019924609 	1.8878235
0.0021105528 	-0.031985406 	-0.019924609 	1.8878235
0.0021306533 	-0.031985406 	-0.019924609 	1.8878235
0.0021507538 	-0.035560901 	-0.026453604 	1.9213542
0.0021708543 	-0.035560901 	-0.026453604 	1.9213542
0.0021909548 	-0.026642889 	-0.021354365 	1.9162093
0.0022110553 	-0.026642889 	-0.021354365 	1.9162093
0.0022311558 	-0.018209927 	-0.035945036 	1.8699568
0.0022512563 	-0.018209927 	-0.035945036 	1.8699568
0.0022713568 	-0.034601897 	-0.034909556 	1.8310315
0.0022914573 	-0.034601897 	-0.034909556 	1.8310315
0.0023115578 	-0.034601897 	-0.034909556 	1.8310315
0.0023316583 	-0.046521625 	-0.011038556 	1.839412
0.0023517588 	-0.046521625 	-0.011038556 	1.839412
0.0023718593 	-0.050654069 	0.0076141533 	1.8554223
0.0023919598 	-0.050654069 	0.0076141533 	1.8554223
0.0024120603 	-0.05012931 	-0.0056115107 	1.8619776
0.0024321608 	-0.05012931 	-0.0056115107 	1.8619776
0.0024522613 	-0.048299569 	-0.024433481 	1.886832
0.0024723618 	-0.048299569 	-0.024433481 	1.886832
0.0024924623 	-0.055289986 	-0.038082554 	1.8900064
0.0025125628 	-0.055289986 	-0.038082554 	1.8900064
0.0025326633 	-0.049679156 	-0.057874591 	1.8550255
0.0025527638 	-0.049679156 	-0.057874591 	1.8550255
0.0025728643 	-0.045575891 	-0.057304162 	1.838289
0.0025929648 	-0.045575891 	-0.057304162 	1.838289
0.0026130653 	-0.039430567 	-0.052552906 	1.8064944
0.0026331658 	-0.039430567 	-0.052552906 	1.8064944
0.0026532663 	-0.044133163 	-0.041132672 	1.7710116
0.0026733668 	-0.044133163 	-0.041132672 	1.7710116
0.0026934673 	-0.061259247 	-0.037010476 	1.7087258
0.0027135678 	-0.061259247 	-0.037010476 	1.7087258
0.0027336683 	-0.077383965 	-0.012680894 	1.6121276
0.0027537688 	-0.077383965 	-0.012680894 	1.6121276
0.0027738693 	-0.09125091 	0.015981773 	1.5957668
0.0027939698 	-0.09125091 	0.015981773 	1.5957668
0.0028140704 	-0.11057978 	-0.019353295 	1.6609822
0.0028341709 	-0.11057978 	-0.019353295 	1.6609822
0.0028542714 	-0.10391898 	-0.047234879 	1.739717
0.0028743719 	-0.094985824 	-0.02315716 	1.7353854
0.0028944724 	-0.094985824 	-0.02315716 	1.7353854
0.0029145729 	-0.064842795 	0.027468852 	1.6752721
0.0029346734 	-0.064842795 	0.027468852 	1.6752721
0.0029547739 	-0.074682934 	0.0087690133 	1.7247359
0.0029748744 	-0.074682934 	0.0087690133 	1.7247359
0.0029949749 	-0.058590697 	-0.0085383613 	1.7078959
0.0030150754 	-0.050804359 	0.0023510234 	1.6880733
0.0030351759 	-0.050804359 	0.0023510234 	1.6880733
0.0030552764 	-0.041255922 	0.011050023 	1.7459097
0.0030753769 	-0.041255922 	0.011050023 	1.7459097
0.0030954774 	-0.035083004 	0.024503987 	1.7510972
0.0031155779 	-0.026026888 	0.022188342 	1.7545871
0.0031356784 	-0.026026888 	0.022188342 	1.7545871
0.0031557789 	-0.025365976 	0.024836922 	1.7477329
0.0031758794 	-0.025365976 	0.024836922 	1.7477329
0.0031959799 	-0.01212777 	0.025431112 	1.7487426
0.0032160804 	-0.0053305376 	0.02301274 	1.7470061
0.0032361809 	-0.0053305376 	0.02301274 	1.7470061
0.0032562814 	0.0011875814 	0.04011302 	1.7915046
0.0032763819 	-0.00034819214 	0.063713969 	1.8226719
0.0032964824 	-0.00034819214 	0.063713969 	1.8226719
0.0033165829 	-0.00022736196 	0.05900131 	1.8103923
0.0033366834 	-0.0012710151 	0.031721461 	1.7943345
0.0033567839 	-0.0012710151 	0.031721461 	1.7943345
0.0033768844 	0.0015942737 	0.012909257 	1.8020719
0.0033969849 	0.0013538214 	0.011004237 	1.7938463
0.0034170854 	0.0013538214 	0.011004237 	1.7938463
0.0034371859 	0.0025218535 	0.0084364528 	1.7476879
0.0034572864 	0.0072102658 	0.0076521586 	1.6939717
0.0034773869 	0.014780285 	0.058554805 	1.6625279
0.0034974874 	0.014780285 	0.058554805 	1.6625279
0.0035175879 	0.033951123 	0.10605604 	1.6296477
0.0035376884 	0.054352094 	0.1021149 	1.6272603
0.0035577889 	0.062677844 	0.059869596 	1.6706364
0.0035778894 	0.062677844 	0.059869596 	1.6706364
0.0035979899 	0.067744731 	-0.029034185 	1.6814102
0.0036180905 	0.064822126 	-0.077118566 	1.732644
0.003638191 	0.053113041 	-0.040960403 	1.8059788
0.0036582915 	0.053113041 	-0.040960403 	1.8059788
0.003678392 	0.04559212 	-0.049757891 	1.7740117
0.0036984925 	0.030125742 	-0.10101405 	1.6796015
0.003718593 	0.0086773639 	-0.063344384 	1.6723236
0.0037386935 	-0.017512993 	0.016610321 	1.7195929
0.003758794 	-0.039223638 	-0.02812754 	1.7713766
0.0037788945 	-0.039223638 	-0.02812754 	1.7713766
0.003798995 	-0.047357308 	-0.12918142 	1.7862073
0.0038190955 	-0.038191114 	-0.14617029 	1.6968831
0.003839196 	-0.022725507 	-0.12695895 	1.579207
0.0038592965 	-0.017712345 	-0.05910404 	1.4574512
0.003879397 	-0.031463302 	-0.040997622 	1.3106118
0.0038994975 	-0.0046900517 	-0.023411041 	1.207352
0.003919598 	-0.011646657 	-0.16750665 	1.1002194
0.0039396985 	-0.0014675359 	-0.18569487 	1.1096541
0.003959799 	-0.0034625413 	-0.17849699 	0.93740485
0.0039798995 	-0.0038175552 	0.091048564 	0.3701244
0.004 	-0.0038175552 	0.091048564 	0.3701244
