0 	-0.037301813 	-0.0023580314 	2.0669993
2.0100503e-05 	0.00021936291 	0.034339765 	2.0752504
4.0201005e-05 	0.00021936291 	0.034339765 	2.0752504
6.0301508e-05 	0.015529129 	0.024194754 	2.090688
8.040201e-05 	0.015529129 	0.024194754 	2.090688
0.00010050251 	0.015529129 	0.024194754 	2.090688
0.00012060302 	0.011902605 	0.012041478 	2.0837015
0.00014070352 	0.011902605 	0.012041478 	2.0837015
0.00016080402 	0.011902605 	0.012041478 	2.0837015
0.00018090452 	0.028119737 	-0.023570672 	2.0326326
0.00020100503 	0.028119737 	-0.023570672 	2.0326326
0.00022110553 	0.028119737 	-0.023570672 	2.0326326
0.00024120603 	0.025914439 	-0.049678273 	2.0273037
0.00026130653 	0.025914439 	-0.049678273 	2.0273037
0.00028140704 	0.026344237 	-0.056612714 	2.0185117
0.00030150754 	0.026344237 	-0.056612714 	2.0185117
0.00032160804 	0.026344237 	-0.056612714 	2.0185117
0.00034170854 	0.027320354 	-0.051971083 	1.9948979
0.00036180905 	0.027320354 	-0.051971083 	1.9948979
0.00038190955 	0.027320354 	-0.051971083 	1.9948979
0.00040201005 	0.02602357 	-0.053224787 	1.9987828
0.00042211055 	0.02602357 	-0.053224787 	1.9987828
0.00044221106 	0.02602357 	-0.053224787 	1.9987828
0.00046231156 	0.026167897 	-0.051326292 	2.0190136
0.00048241206 	0.026167897 	-0.051326292 	2.0190136
0.00050251256 	0.031997056 	-0.045405088 	2.003308
0.00052261307 	0.031997056 	-0.045405088 	2.003308
0.00054271357 	0.031997056 	-0.045405088 	2.003308
0.00056281407 	0.039019678 	-0.02921568 	2.0004229
0.00058291457 	0.039019678 	-0.02921568 	2.0004229
0.00060301508 	0.033061091 	-0.032990172 	2.0109772
0.00062311558 	0.036865103 	-0.011770328 	2.0081668
0.00064321608 	0.036865103 	-0.011770328 	2.0081668
0.00066331658 	0.036865103 	-0.011770328 	2.0081668
0.00068341709 	0.030910264 	-0.0024718239 	2.0224558
0.00070351759 	0.038029378 	-0.0066066037 	2.028684
0.00072361809 	0.043461016 	-0.012491771 	2.034298
0.00074371859 	0.043461016 	-0.012491771 	2.034298
0.0007638191 	0.043461016 	-0.012491771 	2.034298
0.0007839196 	0.045339326 	-0.017207768 	2.026077
0.0008040201 	0.045339326 	-0.017207768 	2.026077
0.0008241206 	0.045339326 	-0.017207768 	2.026077
0.00084422111 	0.052594947 	-0.020311505 	2.0252886
0.00086432161 	0.052594947 	-0.020311505 	2.0252886
0.00088442211 	0.052594947 	-0.020311505 	2.0252886
0.00090452261 	0.050403064 	-0.024875761 	2.0105496
0.00092462312 	0.050403064 	-0.024875761 	2.0105496
0.00094472362 	0.055898309 	-0.0078752762 	2.0094764
0.00096482412 	0.055898309 	-0.0078752762 	2.0094764
0.00098492462 	0.055898309 	-0.0078752762 	2.0094764
0.0010050251 	0.05206299 	-0.019691144 	2.0098125
0.0010251256 	0.05206299 	-0.019691144 	2.0098125
0.0010452261 	0.05206299 	-0.019691144 	2.0098125
0.0010653266 	0.036310796 	-0.024202927 	1.9951686
0.0010854271 	0.036310796 	-0.024202927 	1.9951686
0.0011055276 	0.036310796 	-0.024202927 	1.9951686
0.0011256281 	0.036298129 	-0.047615022 	2.0249405
0.0011457286 	0.036298129 	-0.047615022 	2.0249405
0.0011658291 	0.036298129 	-0.047615022 	2.0249405
0.0011859296 	0.03577015 	-0.018798903 	1.9833234
0.0012060302 	0.039100736 	-0.05184226 	2.0009825
0.0012261307 	0.039100736 	-0.05184226 	2.0009825
0.0012462312 	0.039675338 	-0.028143632 	1.9776373
0.0012663317 	0.039675338 	-0.028143632 	1.9776373
0.0012864322 	0.039675338 	-0.028143632 	1.9776373
0.0013065327 	0.035272175 	-0.011984851 	1.9768613
0.0013266332 	0.035272175 	-0.011984851 	1.9768613
0.0013467337 	0.035272175 	-0.011984851 	1.9768613
0.0013668342 	0.035407841 	-0.008087369 	1.9729241
0.0013869347 	0.035407841 	-0.008087369 	1.9729241
0.0014070352 	0.035407841 	-0.008087369 	1.9729241
0.0014271357 	0.038734496 	0.018650184 	1.9553117
0.0014472362 	0.038734496 	0.018650184 	1.9553117
0.0014673367 	0.038734496 	0.018650184 	1.9553117
0.0014874372 	0.033799986 	-0.0036504275 	1.936525
0.0015075377 	0.033799986 	-0.0036504275 	1.936525
0.0015276382 	0.031543572 	-0.025011204 	1.9551877
0.0015477387 	0.031543572 	-0.025011204 	1.9551877
0.0015678392 	0.031543572 	-0.025011204 	1.9551877
0.0015879397 	0.040324177 	-0.0051299669 	1.9673684
0.0016080402 	0.040324177 	-0.0051299669 	1.9673684
0.0016281407 	0.040324177 	-0.0051299669 	1.9673684
0.0016482412 	0.034531394 	0.012265864 	1.9663765
0.0016683417 	0.034531394 	0.012265864 	1.9663765
0.0016884422 	0.034120539 	0.041440322 	1.9070409
0.0017085427 	0.034120539 	0.041440322 	1.9070409
0.0017286432 	0.034120539 	0.041440322 	1.9070409
0.0017487437 	0.036693572 	0.0052567837 	1.9163849
0.0017688442 	0.036693572 	0.0052567837 	1.9163849
0.0017889447 	0.036693572 	0.0052567837 	1.9163849
0.0018090452 	0.02252236 	-0.0038024619 	1.9167778
0.0018291457 	0.02252236 	-0.0038024619 	1.9167778
0.0018492462 	0.0095191524 	0.01470611 	1.8808471
0.0018693467 	0.0095191524 	0.01470611 	1.8808471
0.0018894472 	0.0095191524 	0.01470611 	1.8808471
0.0019095477 	0.0086350601 	0.023443476 	1.8732921
0.0019296482 	0.0086350601 	0.023443476 	1.8732921
0.0019497487 	0.0092788782 	0.023236078 	1.8924126
0.0019698492 	0.0092788782 	0.023236078 	1.8924126
0.0019899497 	0.017048067 	0.019985539 	1.9007847
0.0020100503 	0.017048067 	0.019985539 	1.9007847
0.0020301508 	0.017048067 	0.019985539 	1.9007847
0.0020502513 	0.017390531 	0.0078497311 	1.9096453
0.0020703518 	0.017390531 	0.0078497311 	1.9096453
0.0020904523 	0.023265053 	0.0035530435 	1.9205403
0.0021105528 	0.023265053 	0.0035530435 	1.9205403
0.0021306533 	0.023265053 	0.0035530435 	1.9205403
0.0021507538 	0.031614822 	0.011686222 	1.9097709
0.0021708543 	0.031614822 	0.011686222 	1.9097709
0.0021909548 	0.046665105 	-0.015107502 	1.8920951
0.0022110553 	0.046665105 	-0.015107502 	1.8920951
0.0022311558 	0.055043109 	-0.020939063 	1.9124508
0.0022512563 	0.055043109 	-0.020939063 	1.9124508
0.0022713568 	0.073383109 	-0.010966545 	1.9450465
0.0022914573 	0.073383109 	-0.010966545 	1.9450465
0.0023115578 	0.073383109 	-0.010966545 	1.9450465
0.0023316583 	0.091270411 	0.00068529275 	1.9126011
0.0023517588 	0.091270411 	0.00068529275 	1.9126011
0.0023718593 	0.10155482 	0.0027808831 	1.9097099
0.0023919598 	0.10155482 	0.0027808831 	1.9097099
0.0024120603 	0.10051981 	-0.0033523697 	1.9713658
0.0024321608 	0.10051981 	-0.0033523697 	1.9713658
0.0024522613 	0.096642774 	0.0018398148 	1.9491465
0.0024723618 	0.096642774 	0.0018398148 	1.9491465
0.0024924623 	0.091887196 	0.026586081 	1.9280363
0.0025125628 	0.091887196 	0.026586081 	1.9280363
0.0025326633 	0.091553365 	0.037351564 	1.9212895
0.0025527638 	0.091553365 	0.037351564 	1.9212895
0.0025728643 	0.084432951 	0.055173684 	1.9061191
0.0025929648 	0.084432951 	0.055173684 	1.9061191
0.0026130653 	0.091400802 	0.074581753 	1.8555736
0.0026331658 	0.091400802 	0.074581753 	1.8555736
0.0026532663 	0.1016514 	0.089175169 	1.8325901
0.0026733668 	0.1016514 	0.089175169 	1.8325901
0.0026934673 	0.097304376 	0.091857698 	1.8845751
0.0027135678 	0.097304376 	0.091857698 	1.8845751
0.0027336683 	0.097711851 	0.095714265 	1.9389085
0.0027537688 	0.097711851 	0.095714265 	1.9389085
0.0027738693 	0.11331667 	0.120099 	1.9170018
0.0027939698 	0.11331667 	0.120099 	1.9170018
0.0028140704 	0.11685203 	0.10878904 	1.9120655
0.0028341709 	0.11685203 	0.10878904 	1.9120655
0.0028542714 	0.086600405 	0.10508073 	1.9102584
0.0028743719 	0.070888986 	0.11166734 	1.9176674
0.0028944724 	0.070888986 	0.11166734 	1.9176674
0.0029145729 	0.055018316 	0.10865688 	1.9301042
0.0029346734 	0.055018316 	0.10865688 	1.9301042
0.0029547739 	0.044382668 	0.10763834 	1.9281744
0.0029748744 	0.044382668 	0.10763834 	1.9281744
0.0029949749 	0.041026727 	0.094560586 	1.9209206
0.0030150754 	0.033958054 	0.084544231 	1.8653909
0.0030351759 	0.033958054 	0.084544231 	1.8653909
0.0030552764 	0.037011106 	0.078209673 	1.8403094
0.0030753769 	0.037011106 	0.078209673 	1.8403094
0.0030954774 	0.032976632 	0.047887533 	1.8633395
0.0031155779 	0.030953864 	0.038775507 	1.8689954
0.0031356784 	0.030953864 	0.038775507 	1.8689954
0.0031557789 	0.030452903 	0.049330269 	1.8709298
0.0031758794 	0.030452903 	0.049330269 	1.8709298
0.0031959799 	0.030292487 	0.04844069 	1.8895058
0.0032160804 	0.030003182 	0.045912173 	1.8932734
0.0032361809 	0.030003182 	0.045912173 	1.8932734
0.0032562814 	0.040439617 	0.051923846 	1.8833108
0.0032763819 	0.039787807 	0.043472369 	1.8763186
0.0032964824 	0.039787807 	0.043472369 	1.8763186
0.0033165829 	0.038233281 	0.015795213 	1.8685933
0.0033366834 	0.042192932 	-0.0039844674 	1.8784233
0.0033567839 	0.042192932 	-0.0039844674 	1.8784233
0.0033768844 	0.037598806 	0.043462451 	1.8722028
0.0033969849 	0.028109726 	0.093609102 	1.8310121
0.0034170854 	0.028109726 	0.093609102 	1.8310121
0.0034371859 	0.026540258 	0.088074293 	1.7883698
0.0034572864 	0.036300929 	0.0062007674 	1.7705798
0.0034773869 	0.028279881 	-0.082372329 	1.7603701
0.0034974874 	0.028279881 	-0.082372329 	1.7603701
0.0035175879 	0.016843525 	-0.092180916 	1.6864197
0.0035376884 	0.011372271 	-0.080572861 	1.6416624
0.0035577889 	0.0027454763 	-0.12976681 	1.6927927
0.0035778894 	0.0027454763 	-0.12976681 	1.6927927
0.0035979899 	-0.0072684379 	-0.16795288 	1.7246117
0.0036180905 	-0.020672204 	-0.17036748 	1.6671579
0.003638191 	-0.035409944 	-0.15019499 	1.6136023
0.0036582915 	-0.035409944 	-0.15019499 	1.6136023
0.003678392 	-0.045879239 	-0.093315119 	1.5967099
0.0036984925 	-0.053127159 	-0.024411972 	1.6443849
0.003718593 	-0.052977111 	0.0061323411 	1.6824603
0.0037386935 	-0.050364188 	-0.0029372082 	1.5928749
0.003758794 	-0.053189681 	-0.0011970901 	1.4703184
0.0037788945 	-0.053189681 	-0.0011970901 	1.4703184
0.003798995 	-0.064727223 	0.02247252 	1.4478625
0.0038190955 	-0.065955183 	0.00061671026 	1.4829005
0.003839196 	-0.059541161 	0.037662382 	1.5260664
0.0038592965 	-0.048473786 	0.13738484 	1.5177011
0.003879397 	-0.047348374 	0.12314392 	1.4325865
0.0038994975 	-0.021300008 	-0.070031039 	1.3613468
0.003919598 	-0.049692002 	-0.29065191 	1.3624589
0.0039396985 	-0.030030034 	-0.27943424 	1.2531029
0.003959799 	-0.042450951 	-0.085923264 	0.89824062
0.0039798995 	0.0042134485 	0.041709758 	0.51731181
0.004 	0.0042134485 	0.041709758 	0.51731181
