0 	-0.071853667 	-0.0034605424 	2.0878186
2.0100503e-05 	-0.0070464768 	0.068410442 	2.090192
4.0201005e-05 	-0.0070464768 	0.068410442 	2.090192
6.0301508e-05 	0.019540803 	0.065054736 	2.1072465
8.040201e-05 	0.019540803 	0.065054736 	2.1072465
0.00010050251 	0.019540803 	0.065054736 	2.1072465
0.00012060302 	0.022870364 	0.066081676 	2.0945845
0.00014070352 	0.022870364 	0.066081676 	2.0945845
0.00016080402 	0.022870364 	0.066081676 	2.0945845
0.00018090452 	0.022451591 	0.06582281 	2.0654086
0.00020100503 	0.022451591 	0.06582281 	2.0654086
0.00022110553 	0.022451591 	0.06582281 	2.0654086
0.00024120603 	0.019370229 	0.054211368 	2.04191
0.00026130653 	0.019370229 	0.054211368 	2.04191
0.00028140704 	0.017256489 	0.055359497 	2.0342093
0.00030150754 	0.017256489 	0.055359497 	2.0342093
0.00032160804 	0.017256489 	0.055359497 	2.0342093
0.00034170854 	0.0058935477 	0.046335231 	2.0243604
0.00036180905 	0.0058935477 	0.046335231 	2.0243604
0.00038190955 	0.0058935477 	0.046335231 	2.0243604
0.00040201005 	0.0038231754 	0.034948 	2.0329892
0.00042211055 	0.0038231754 	0.034948 	2.0329892
0.00044221106 	0.0038231754 	0.034948 	2.0329892
0.00046231156 	0.01241523 	0.018723452 	2.039025
0.00048241206 	0.01241523 	0.018723452 	2.039025
0.00050251256 	0.012575606 	-0.013131446 	2.0350388
0.00052261307 	0.012575606 	-0.013131446 	2.0350388
0.00054271357 	0.012575606 	-0.013131446 	2.0350388
0.00056281407 	0.0020415669 	-0.016348804 	2.0441797
0.00058291457 	0.0020415669 	-0.016348804 	2.0441797
0.00060301508 	0.0020415669 	-0.016348804 	2.0441797
0.00062311558 	0.0055398181 	-0.017991276 	2.0458044
0.00064321608 	0.0055398181 	-0.017991276 	2.0458044
0.00066331658 	0.0055398181 	-0.017991276 	2.0458044
0.00068341709 	0.0072046469 	-0.031884786 	2.0261577
0.00070351759 	0.0072046469 	-0.031884786 	2.0261577
0.00072361809 	-0.0073788898 	-0.045799568 	2.0193218
0.00074371859 	-0.0073788898 	-0.045799568 	2.0193218
0.0007638191 	-0.0073788898 	-0.045799568 	2.0193218
0.0007839196 	-0.018128156 	-0.044114327 	2.0174764
0.0008040201 	-0.018128156 	-0.044114327 	2.0174764
0.0008241206 	-0.018128156 	-0.044114327 	2.0174764
0.00084422111 	-0.022271019 	-0.037240675 	2.0544414
0.00086432161 	-0.022271019 	-0.037240675 	2.0544414
0.00088442211 	-0.022271019 	-0.037240675 	2.0544414
0.00090452261 	-0.037616367 	-0.027848865 	2.0962943
0.00092462312 	-0.037616367 	-0.027848865 	2.0962943
0.00094472362 	-0.025424247 	-0.024795568 	2.0029796
0.00096482412 	-0.025424247 	-0.024795568 	2.0029796
0.00098492462 	-0.025424247 	-0.024795568 	2.0029796
0.0010050251 	-0.037139222 	-0.036371596 	1.8963576
0.0010251256 	-0.037139222 	-0.036371596 	1.8963576
0.0010452261 	-0.037139222 	-0.036371596 	1.8963576
0.0010653266 	-0.056500541 	-0.041025799 	1.8852068
0.0010854271 	-0.056500541 	-0.041025799 	1.8852068
0.0011055276 	-0.02931867 	-0.037164605 	1.9106956
0.0011256281 	-0.034262877 	-0.039316953 	1.8868676
0.0011457286 	-0.034262877 	-0.039316953 	1.8868676
0.0011658291 	-0.034262877 	-0.039316953 	1.8868676
0.0011859296 	-0.024624588 	-0.034449637 	1.8853239
0.0012060302 	-0.037996003 	-0.018349231 	1.9383654
0.0012261307 	-0.037996003 	-0.018349231 	1.9383654
0.0012462312 	-0.029678012 	-0.023012321 	1.9101687
0.0012663317 	-0.029678012 	-0.023012321 	1.9101687
0.0012864322 	-0.029678012 	-0.023012321 	1.9101687
0.0013065327 	-0.023645325 	0.013414031 	1.9467117
0.0013266332 	-0.023645325 	0.013414031 	1.9467117
0.0013467337 	-0.023645325 	0.013414031 	1.9467117
0.0013668342 	-0.0083229212 	0.037219353 	1.9843622
0.0013869347 	-0.0083229212 	0.037219353 	1.9843622
0.0014070352 	-0.0083229212 	0.037219353 	1.9843622
0.0014271357 	-0.0069702893 	0.01679786 	1.9376975
0.0014472362 	-0.0069702893 	0.01679786 	1.9376975
0.0014673367 	-0.0069702893 	0.01679786 	1.9376975
0.0014874372 	-0.0063460386 	-0.00010277517 	1.9341454
0.0015075377 	-0.0063460386 	-0.00010277517 	1.9341454
0.0015276382 	-0.0015650567 	-0.0071278936 	1.9261692
0.0015477387 	-0.0015650567 	-0.0071278936 	1.9261692
0.0015678392 	-0.0015650567 	-0.0071278936 	1.9261692
0.0015879397 	-0.0043345594 	0.0067512442 	1.9437415
0.0016080402 	-0.0043345594 	0.0067512442 	1.9437415
0.0016281407 	-0.0043345594 	0.0067512442 	1.9437415
0.0016482412 	-0.017642448 	0.014426915 	1.8585109
0.0016683417 	-0.020406509 	0.006552911 	1.9190577
0.0016884422 	-0.01481191 	0.0041872398 	1.8934486
0.0017085427 	-0.01481191 	0.0041872398 	1.8934486
0.0017286432 	-0.01481191 	0.0041872398 	1.8934486
0.0017487437 	-0.028437408 	-0.0074384375 	1.8684678
0.0017688442 	-0.028437408 	-0.0074384375 	1.8684678
0.0017889447 	-0.028437408 	-0.0074384375 	1.8684678
0.0018090452 	-0.021589776 	-0.020327633 	1.8519834
0.0018291457 	-0.021589776 	-0.020327633 	1.8519834
0.0018492462 	-0.022985692 	-0.017345136 	1.8367649
0.0018693467 	-0.022985692 	-0.017345136 	1.8367649
0.0018894472 	-0.022985692 	-0.017345136 	1.8367649
0.0019095477 	-0.022336419 	-0.021887225 	1.8222618
0.0019296482 	-0.022336419 	-0.021887225 	1.8222618
0.0019497487 	-0.010301322 	0.0072055348 	1.8257801
0.0019698492 	-0.010301322 	0.0072055348 	1.8257801
0.0019899497 	-0.010199098 	-0.0072009995 	1.8392163
0.0020100503 	-0.010199098 	-0.0072009995 	1.8392163
0.0020301508 	-0.010199098 	-0.0072009995 	1.8392163
0.0020502513 	-0.011315627 	-0.0079112034 	1.846834
0.0020703518 	-0.011315627 	-0.0079112034 	1.846834
0.0020904523 	-0.0033401686 	-0.00038831737 	1.827368
0.0021105528 	-0.0033401686 	-0.00038831737 	1.827368
0.0021306533 	-0.0033401686 	-0.00038831737 	1.827368
0.0021507538 	0.0078215134 	-0.0083308368 	1.8348103
0.0021708543 	0.0078215134 	-0.0083308368 	1.8348103
0.0021909548 	0.0028393115 	0.013838362 	1.8373624
0.0022110553 	0.0028393115 	0.013838362 	1.8373624
0.0022311558 	0.024286183 	0.058412481 	1.8348121
0.0022512563 	0.024286183 	0.058412481 	1.8348121
0.0022713568 	0.023378315 	0.062714277 	1.827823
0.0022914573 	0.023378315 	0.062714277 	1.827823
0.0023115578 	0.023378315 	0.062714277 	1.827823
0.0023316583 	0.0021355607 	0.03834056 	1.8065695
0.0023517588 	0.0021355607 	0.03834056 	1.8065695
0.0023718593 	-0.0008855641 	0.046125143 	1.835295
0.0023919598 	-0.0008855641 	0.046125143 	1.835295
0.0024120603 	-0.014981767 	0.061214707 	1.8547661
0.0024321608 	-0.014981767 	0.061214707 	1.8547661
0.0024522613 	-0.018186792 	0.048980022 	1.8242771
0.0024723618 	-0.018186792 	0.048980022 	1.8242771
0.0024924623 	-0.0095770445 	0.059254249 	1.7990429
0.0025125628 	-0.0095770445 	0.059254249 	1.7990429
0.0025326633 	0.0026359853 	0.068088482 	1.8188579
0.0025527638 	0.0026359853 	0.068088482 	1.8188579
0.0025728643 	0.018552595 	0.059094858 	1.8451357
0.0025929648 	0.018552595 	0.059094858 	1.8451357
0.0026130653 	0.03155412 	0.02226222 	1.8190389
0.0026331658 	0.03155412 	0.02226222 	1.8190389
0.0026532663 	0.040486676 	-0.031719471 	1.8127241
0.0026733668 	0.040486676 	-0.031719471 	1.8127241
0.0026934673 	0.052252864 	-0.071068709 	1.8515921
0.0027135678 	0.052252864 	-0.071068709 	1.8515921
0.0027336683 	0.063652933 	-0.058613118 	1.8823713
0.0027537688 	0.063652933 	-0.058613118 	1.8823713
0.0027738693 	0.070270664 	-0.04486282 	1.9056258
0.0027939698 	0.070270664 	-0.04486282 	1.9056258
0.0028140704 	0.069582524 	-0.051777596 	1.9035597
0.0028341709 	0.069582524 	-0.051777596 	1.9035597
0.0028542714 	0.062513823 	-0.065292897 	1.8732893
0.0028743719 	0.053089066 	-0.076409727 	1.8701066
0.0028944724 	0.053089066 	-0.076409727 	1.8701066
0.0029145729 	0.047348584 	-0.075963057 	1.9159154
0.0029346734 	0.047348584 	-0.075963057 	1.9159154
0.0029547739 	0.051439136 	-0.067294552 	1.9393922
0.0029748744 	0.051439136 	-0.067294552 	1.9393922
0.0029949749 	0.05141326 	-0.060140974 	1.959529
0.0030150754 	0.039775894 	-0.063363432 	1.9466862
0.0030351759 	0.039775894 	-0.063363432 	1.9466862
0.0030552764 	0.051767634 	-0.056872899 	1.7863262
0.0030753769 	0.051767634 	-0.056872899 	1.7863262
0.0030954774 	0.055184003 	-0.015576161 	1.6726563
0.0031155779 	0.054076594 	-0.036861941 	1.71051
0.0031356784 	0.054076594 	-0.036861941 	1.71051
0.0031557789 	0.029612701 	-0.045211139 	1.7029711
0.0031758794 	0.029612701 	-0.045211139 	1.7029711
0.0031959799 	0.022633689 	-0.01905937 	1.7108693
0.0032160804 	0.021657186 	-0.082126148 	1.8030063
0.0032361809 	0.021657186 	-0.082126148 	1.8030063
0.0032562814 	0.0022478069 	-0.11685008 	1.782658
0.0032763819 	0.0045772604 	-0.058505039 	1.7474551
0.0032964824 	0.0045772604 	-0.058505039 	1.7474551
0.0033165829 	0.0028518883 	-0.047961941 	1.7678153
0.0033366834 	0.012156799 	-0.046251818 	1.804881
0.0033567839 	0.012156799 	-0.046251818 	1.804881
0.0033768844 	0.0094822703 	-0.051341122 	1.7859933
0.0033969849 	0.025649712 	-0.017418739 	1.760729
0.0034170854 	0.025649712 	-0.017418739 	1.760729
0.0034371859 	0.035030925 	0.025076011 	1.7769089
0.0034572864 	0.043318832 	0.012156735 	1.7907563
0.0034773869 	0.051348807 	0.00018347804 	1.7616606
0.0034974874 	0.051348807 	0.00018347804 	1.7616606
0.0035175879 	0.054738033 	-0.017836563 	1.7618545
0.0035376884 	0.053166771 	-0.0098685104 	1.7599883
0.0035577889 	0.055864636 	0.028039235 	1.7437499
0.0035778894 	0.055864636 	0.028039235 	1.7437499
0.0035979899 	0.056255268 	0.063851418 	1.6913905
0.0036180905 	0.058263531 	0.076014267 	1.6086679
0.003638191 	0.063565802 	0.080480945 	1.5436965
0.0036582915 	0.063565802 	0.080480945 	1.5436965
0.003678392 	0.066818947 	0.074304466 	1.5285568
0.0036984925 	0.068543692 	0.086848016 	1.5463552
0.003718593 	0.069848315 	0.10443736 	1.5601524
0.0037386935 	0.065941416 	0.11701305 	1.5841815
0.003758794 	0.055344973 	0.11978399 	1.6147418
0.0037788945 	0.055344973 	0.11978399 	1.6147418
0.003798995 	0.034387293 	0.069466536 	1.6671228
0.0038190955 	0.018373615 	-0.0046274789 	1.7426323
0.003839196 	0.010837465 	-0.081664254 	1.7423219
0.0038592965 	0.013276493 	-0.02869519 	1.5826397
0.003879397 	0.022048638 	0.046770263 	1.3163323
0.0038994975 	-0.011249166 	0.064792937 	1.1831443
0.003919598 	0.016460627 	0.03987929 	1.13836
0.0039396985 	0.025755859 	0.19796324 	1.389752
0.003959799 	0.015707656 	0.35231409 	1.232941
0.0039798995 	-0.008062345 	0.11126546 	0.4120276
0.004 	-0.008062345 	0.11126546 	0.4120276
