0 	0.029734502 	-0.065287861 	2.0722889
2.0100503e-05 	-0.06209521 	-0.023961368 	2.0619574
4.0201005e-05 	-0.06209521 	-0.023961368 	2.0619574
6.0301508e-05 	-0.059927597 	0.0073790241 	2.0600749
8.040201e-05 	-0.059927597 	0.0073790241 	2.0600749
0.00010050251 	-0.059927597 	0.0073790241 	2.0600749
0.00012060302 	-0.053078004 	0.0029206021 	2.0561549
0.00014070352 	-0.053078004 	0.0029206021 	2.0561549
0.00016080402 	-0.053078004 	0.0029206021 	2.0561549
0.00018090452 	-0.048689011 	0.0057565685 	2.0562072
0.00020100503 	-0.048689011 	0.0057565685 	2.0562072
0.00022110553 	-0.048689011 	0.0057565685 	2.0562072
0.00024120603 	-0.047821196 	-9.93245e-05 	2.0720022
0.00026130653 	-0.047821196 	-9.93245e-05 	2.0720022
0.00028140704 	-0.04493458 	-0.010187424 	2.0789947
0.00030150754 	-0.04493458 	-0.010187424 	2.0789947
0.00032160804 	-0.04493458 	-0.010187424 	2.0789947
0.00034170854 	-0.042743663 	-0.0076342102 	2.0600755
0.00036180905 	-0.042743663 	-0.0076342102 	2.0600755
0.00038190955 	-0.042743663 	-0.0076342102 	2.0600755
0.00040201005 	-0.033062794 	-0.021374141 	2.0052956
0.00042211055 	-0.033062794 	-0.021374141 	2.0052956
0.00044221106 	-0.033062794 	-0.021374141 	2.0052956
0.00046231156 	-0.038153562 	-0.023263866 	1.9819675
0.00048241206 	-0.038153562 	-0.023263866 	1.9819675
0.00050251256 	-0.046469567 	-0.029660887 	2.0196359
0.00052261307 	-0.046469567 	-0.029660887 	2.0196359
0.00054271357 	-0.046469567 	-0.029660887 	2.0196359
0.00056281407 	-0.055359142 	-0.035980764 	2.0732645
0.00058291457 	-0.055359142 	-0.035980764 	2.0732645
0.00060301508 	-0.055359142 	-0.035980764 	2.0732645
0.00062311558 	-0.052519272 	-0.043528161 	2.1028871
0.00064321608 	-0.052519272 	-0.043528161 	2.1028871
0.00066331658 	-0.052519272 	-0.043528161 	2.1028871
0.00068341709 	-0.06080105 	-0.046412177 	2.0855727
0.00070351759 	-0.06080105 	-0.046412177 	2.0855727
0.00072361809 	-0.067929896 	-0.0381317 	2.0587857
0.00074371859 	-0.067929896 	-0.0381317 	2.0587857
0.0007638191 	-0.067929896 	-0.0381317 	2.0587857
0.0007839196 	-0.05906649 	-0.014158707 	2.0464469
0.0008040201 	-0.05906649 	-0.014158707 	2.0464469
0.0008241206 	-0.05906649 	-0.014158707 	2.0464469
0.00084422111 	-0.050081198 	0.0091529569 	2.0723062
0.00086432161 	-0.050081198 	0.0091529569 	2.0723062
0.00088442211 	-0.050081198 	0.0091529569 	2.0723062
0.00090452261 	-0.045846596 	0.024383239 	2.0831509
0.00092462312 	-0.045846596 	0.024383239 	2.0831509
0.00094472362 	-0.030876232 	0.035220705 	2.0604507
0.00096482412 	-0.030876232 	0.035220705 	2.0604507
0.00098492462 	-0.030876232 	0.035220705 	2.0604507
0.0010050251 	-0.024425243 	0.037937457 	2.0641445
0.0010251256 	-0.024425243 	0.037937457 	2.0641445
0.0010452261 	-0.024425243 	0.037937457 	2.0641445
0.0010653266 	-0.0024884074 	0.059605654 	2.084557
0.0010854271 	-0.0024884074 	0.059605654 	2.084557
0.0011055276 	-0.0024884074 	0.059605654 	2.084557
0.0011256281 	-0.049703375 	0.070704223 	2.0818775
0.0011457286 	-0.060987277 	0.057827908 	2.0663372
0.0011658291 	-0.060987277 	0.057827908 	2.0663372
0.0011859296 	-0.054837858 	0.0072543873 	2.0465184
0.0012060302 	-0.058903318 	0.052890072 	2.0721399
0.0012261307 	-0.058903318 	0.052890072 	2.0721399
0.0012462312 	-0.010097406 	0.057567494 	1.9770116
0.0012663317 	-0.010097406 	0.057567494 	1.9770116
0.0012864322 	-0.010097406 	0.057567494 	1.9770116
0.0013065327 	0.0080144261 	0.034755866 	2.028171
0.0013266332 	0.0080144261 	0.034755866 	2.028171
0.0013467337 	0.0080144261 	0.034755866 	2.028171
0.0013668342 	0.0075901604 	0.012423966 	2.0400232
0.0013869347 	0.0075901604 	0.012423966 	2.0400232
0.0014070352 	0.0075901604 	0.012423966 	2.0400232
0.0014271357 	-0.0034604467 	0.018544903 	2.0375261
0.0014472362 	-0.0034604467 	0.018544903 	2.0375261
0.0014673367 	-0.0034604467 	0.018544903 	2.0375261
0.0014874372 	0.014918056 	0.0069091206 	2.1026915
0.0015075377 	0.014918056 	0.0069091206 	2.1026915
0.0015276382 	0.036884268 	0.017161734 	2.0872298
0.0015477387 	0.036884268 	0.017161734 	2.0872298
0.0015678392 	0.036884268 	0.017161734 	2.0872298
0.0015879397 	0.062005732 	-0.012458615 	2.0370785
0.0016080402 	0.062005732 	-0.012458615 	2.0370785
0.0016281407 	0.052678904 	-0.0073791254 	2.1262721
0.0016482412 	0.057107184 	-0.0059232163 	2.043113
0.0016683417 	0.057107184 	-0.0059232163 	2.043113
0.0016884422 	0.047955262 	0.030771499 	2.0347995
0.0017085427 	0.047955262 	0.030771499 	2.0347995
0.0017286432 	0.047955262 	0.030771499 	2.0347995
0.0017487437 	0.037926024 	-0.0010008261 	2.0192742
0.0017688442 	0.037926024 	-0.0010008261 	2.0192742
0.0017889447 	0.037926024 	-0.0010008261 	2.0192742
0.0018090452 	0.0062371712 	-0.035252969 	2.0015049
0.0018291457 	0.0062371712 	-0.035252969 	2.0015049
0.0018492462 	0.0085652337 	-0.053522732 	1.9425729
0.0018693467 	0.0085652337 	-0.053522732 	1.9425729
0.0018894472 	0.0085652337 	-0.053522732 	1.9425729
0.0019095477 	-0.018976902 	-0.073881246 	1.9851868
0.0019296482 	-0.018976902 	-0.073881246 	1.9851868
0.0019497487 	-0.0051225674 	-0.055275511 	1.9700896
0.0019698492 	-0.0051225674 	-0.055275511 	1.9700896
0.0019899497 	0.0020176457 	-0.049479537 	1.9144999
0.0020100503 	0.0020176457 	-0.049479537 	1.9144999
0.0020301508 	0.0020176457 	-0.049479537 	1.9144999
0.0020502513 	0.0051850731 	-0.065534178 	1.8362208
0.0020703518 	0.0051850731 	-0.065534178 	1.8362208
0.0020904523 	-0.00074752615 	-0.030787718 	1.7954469
0.0021105528 	-0.00074752615 	-0.030787718 	1.7954469
0.0021306533 	-0.00074752615 	-0.030787718 	1.7954469
0.0021507538 	-0.030156268 	-0.0089060336 	1.8543036
0.0021708543 	-0.030156268 	-0.0089060336 	1.8543036
0.0021909548 	-0.030242879 	0.017263463 	1.849926
0.0022110553 	-0.030242879 	0.017263463 	1.849926
0.0022311558 	-0.032003471 	0.013802616 	1.8159321
0.0022512563 	-0.032003471 	0.013802616 	1.8159321
0.0022713568 	-0.027015316 	0.019679204 	1.7974485
0.0022914573 	-0.027015316 	0.019679204 	1.7974485
0.0023115578 	-0.027015316 	0.019679204 	1.7974485
0.0023316583 	-0.019302995 	0.022512561 	1.8255581
0.0023517588 	-0.019302995 	0.022512561 	1.8255581
0.0023718593 	-0.021746105 	0.054438002 	1.852298
0.0023919598 	-0.021746105 	0.054438002 	1.852298
0.0024120603 	-0.034503985 	0.083494135 	1.874615
0.0024321608 	-0.034503985 	0.083494135 	1.874615
0.0024522613 	-0.053838721 	0.074752179 	1.8546493
0.0024723618 	-0.053838721 	0.074752179 	1.8546493
0.0024924623 	-0.06073 	0.055530407 	1.8008559
0.0025125628 	-0.06073 	0.055530407 	1.8008559
0.0025326633 	-0.047588101 	0.077798686 	1.7713258
0.0025527638 	-0.047588101 	0.077798686 	1.7713258
0.0025728643 	-0.029812279 	0.092418468 	1.7358673
0.0025929648 	-0.029812279 	0.092418468 	1.7358673
0.0026130653 	-0.028347273 	0.078503702 	1.7350236
0.0026331658 	-0.028347273 	0.078503702 	1.7350236
0.0026532663 	-0.021649661 	0.045506387 	1.7729714
0.0026733668 	-0.021649661 	0.045506387 	1.7729714
0.0026934673 	-0.0042124811 	0.043768307 	1.8125487
0.0027135678 	-0.0042124811 	0.043768307 	1.8125487
0.0027336683 	0.02368809 	0.047621586 	1.8114457
0.0027537688 	0.02368809 	0.047621586 	1.8114457
0.0027738693 	0.045494402 	0.050239517 	1.7907783
0.0027939698 	0.045494402 	0.050239517 	1.7907783
0.0028140704 	0.064589688 	0.073467271 	1.7543129
0.0028341709 	0.064589688 	0.073467271 	1.7543129
0.0028542714 	0.054105307 	0.053801175 	1.7054111
0.0028743719 	0.036195099 	0.027639799 	1.7811133
0.0028944724 	0.036195099 	0.027639799 	1.7811133
0.0029145729 	0.024772505 	0.053195472 	1.882212
0.0029346734 	0.024772505 	0.053195472 	1.882212
0.0029547739 	0.023678588 	0.086361882 	1.9262698
0.0029748744 	0.023678588 	0.086361882 	1.9262698
0.0029949749 	0.033324119 	0.056055668 	1.8611213
0.0030150754 	0.048795002 	0.02184473 	1.7887811
0.0030351759 	0.048795002 	0.02184473 	1.7887811
0.0030552764 	0.046458508 	0.028150418 	1.7944866
0.0030753769 	0.046458508 	0.028150418 	1.7944866
0.0030954774 	0.04045271 	0.013834472 	1.8019585
0.0031155779 	0.039888087 	0.013797597 	1.7595051
0.0031356784 	0.039888087 	0.013797597 	1.7595051
0.0031557789 	0.03406042 	0.027293918 	1.7665133
0.0031758794 	0.03406042 	0.027293918 	1.7665133
0.0031959799 	0.034090482 	0.017005934 	1.8546396
0.0032160804 	0.025387944 	-0.012476384 	1.8796379
0.0032361809 	0.025387944 	-0.012476384 	1.8796379
0.0032562814 	0.044126993 	-0.01541822 	1.7696305
0.0032763819 	0.05924172 	-0.018828863 	1.7217381
0.0032964824 	0.05924172 	-0.018828863 	1.7217381
0.0033165829 	0.064538229 	-0.019476592 	1.8157208
0.0033366834 	0.064084717 	-0.018306186 	1.838738
0.0033567839 	0.064084717 	-0.018306186 	1.838738
0.0033768844 	0.083715163 	-0.031952393 	1.8539541
0.0033969849 	0.079325607 	-0.026540963 	1.8581138
0.0034170854 	0.079325607 	-0.026540963 	1.8581138
0.0034371859 	0.07747389 	0.003573879 	1.8324486
0.0034572864 	0.077028798 	-0.05591304 	1.8616939
0.0034773869 	0.084708104 	-0.056732442 	1.8350365
0.0034974874 	0.084708104 	-0.056732442 	1.8350365
0.0035175879 	0.10088359 	-0.049675007 	1.7945582
0.0035376884 	0.11135106 	-0.091757475 	1.7779788
0.0035577889 	0.1066473 	-0.091794518 	1.7476302
0.0035778894 	0.1066473 	-0.091794518 	1.7476302
0.0035979899 	0.10342201 	-0.049761567 	1.7236129
0.0036180905 	0.087233667 	0.041751229 	1.7175051
0.003638191 	0.075523896 	0.083729908 	1.7194463
0.0036582915 	0.075523896 	0.083729908 	1.7194463
0.003678392 	0.077575974 	0.090141177 	1.692639
0.0036984925 	0.076201658 	0.062860298 	1.6501786
0.003718593 	0.057366335 	0.0077045827 	1.6343943
0.0037386935 	0.034162064 	0.0039807682 	1.6402512
0.003758794 	0.022006453 	-0.052251341 	1.6922485
0.0037788945 	0.022006453 	-0.052251341 	1.6922485
0.003798995 	0.011716914 	-0.10495357 	1.6843637
0.0038190955 	0.011807223 	-0.13222173 	1.5956259
0.003839196 	0.0028638727 	-0.18071618 	1.5046092
0.0038592965 	-0.018137412 	-0.31676282 	1.4063656
0.003879397 	-0.047360649 	-0.25613772 	1.4073914
0.0038994975 	-0.028536698 	-0.074131424 	1.5762068
0.003919598 	-0.038601102 	0.051092779 	1.7424551
0.0039396985 	-0.0010767455 	0.038263119 	1.7608183
0.003959799 	0.00061787238 	0.1490689 	1.1841514
0.0039798995 	0.022727699 	0.13929351 	0.63143195
0.004 	0.022727699 	0.13929351 	0.63143195
