0 	-0.021023698 	0.022736215 	2.0345746
2.0100503e-05 	-0.016790765 	-0.031318515 	2.0415892
4.0201005e-05 	-0.016790765 	-0.031318515 	2.0415892
6.0301508e-05 	0.0074344167 	-0.035276213 	2.0474435
8.040201e-05 	0.0074344167 	-0.035276213 	2.0474435
0.00010050251 	0.0074344167 	-0.035276213 	2.0474435
0.00012060302 	0.017895901 	-0.017236277 	2.0597812
0.00014070352 	0.017895901 	-0.017236277 	2.0597812
0.00016080402 	0.017895901 	-0.017236277 	2.0597812
0.00018090452 	0.024999376 	-0.015768908 	2.0715003
0.00020100503 	0.024999376 	-0.015768908 	2.0715003
0.00022110553 	0.024999376 	-0.015768908 	2.0715003
0.00024120603 	0.042528757 	-0.016177675 	2.031857
0.00026130653 	0.042528757 	-0.016177675 	2.031857
0.00028140704 	0.05714064 	-0.0097844226 	2.0159356
0.00030150754 	0.05714064 	-0.0097844226 	2.0159356
0.00032160804 	0.05714064 	-0.0097844226 	2.0159356
0.00034170854 	0.067446009 	0.00097521388 	2.0186716
0.00036180905 	0.067446009 	0.00097521388 	2.0186716
0.00038190955 	0.067446009 	0.00097521388 	2.0186716
0.00040201005 	0.07055119 	0.0081126569 	2.0464269
0.00042211055 	0.07055119 	0.0081126569 	2.0464269
0.00044221106 	0.07055119 	0.0081126569 	2.0464269
0.00046231156 	0.05790923 	0.022833533 	2.0712935
0.00048241206 	0.05790923 	0.022833533 	2.0712935
0.00050251256 	0.042543676 	0.037229257 	2.0748963
0.00052261307 	0.042543676 	0.037229257 	2.0748963
0.00054271357 	0.042543676 	0.037229257 	2.0748963
0.00056281407 	0.03466069 	0.034101359 	2.0940563
0.00058291457 	0.03466069 	0.034101359 	2.0940563
0.00060301508 	0.03466069 	0.034101359 	2.0940563
0.00062311558 	0.031474581 	0.037537352 	2.0900212
0.00064321608 	0.031474581 	0.037537352 	2.0900212
0.00066331658 	0.031474581 	0.037537352 	2.0900212
0.00068341709 	0.040954369 	0.033354077 	2.083221
0.00070351759 	0.040954369 	0.033354077 	2.083221
0.00072361809 	0.046302828 	0.031079228 	2.0919434
0.00074371859 	0.046302828 	0.031079228 	2.0919434
0.0007638191 	0.046302828 	0.031079228 	2.0919434
0.0007839196 	0.043125822 	0.024836534 	2.0971423
0.0008040201 	0.043125822 	0.024836534 	2.0971423
0.0008241206 	0.043125822 	0.024836534 	2.0971423
0.00084422111 	0.0427773 	0.018929524 	2.108912
0.00086432161 	0.0427773 	0.018929524 	2.108912
0.00088442211 	0.0427773 	0.018929524 	2.108912
0.00090452261 	0.03889773 	0.015383488 	2.070914
0.00092462312 	0.03889773 	0.015383488 	2.070914
0.00094472362 	0.034307459 	0.011448233 	2.0515126
0.00096482412 	0.034307459 	0.011448233 	2.0515126
0.00098492462 	0.034307459 	0.011448233 	2.0515126
0.0010050251 	0.023269485 	-0.018607023 	1.9920522
0.0010251256 	0.023269485 	-0.018607023 	1.9920522
0.0010452261 	0.023269485 	-0.018607023 	1.9920522
0.0010653266 	0.031082214 	-0.010905077 	2.0074452
0.0010854271 	0.031082214 	-0.010905077 	2.0074452
0.0011055276 	0.031082214 	-0.010905077 	2.0074452
0.0011256281 	0.03924178 	-0.0054806593 	2.0323826
0.0011457286 	0.03924178 	-0.0054806593 	2.0323826
0.0011658291 	0.03924178 	-0.0054806593 	2.0323826
0.0011859296 	0.038500882 	-0.0033446797 	2.0388808
0.0012060302 	0.038500882 	-0.0033446797 	2.0388808
0.0012261307 	0.038500882 	-0.0033446797 	2.0388808
0.0012462312 	0.046552885 	-0.0096627792 	2.0301086
0.0012663317 	0.046552885 	-0.0096627792 	2.0301086
0.0012864322 	0.046552885 	-0.0096627792 	2.0301086
0.0013065327 	0.052877607 	0.010202431 	2.0091241
0.0013266332 	0.052877607 	0.010202431 	2.0091241
0.0013467337 	0.052877607 	0.010202431 	2.0091241
0.0013668342 	0.047205229 	0.027852211 	2.0362838
0.0013869347 	0.047205229 	0.027852211 	2.0362838
0.0014070352 	0.047205229 	0.027852211 	2.0362838
0.0014271357 	0.037911949 	0.034259126 	2.0495083
0.0014472362 	0.037911949 	0.034259126 	2.0495083
0.0014673367 	0.037911949 	0.034259126 	2.0495083
0.0014874372 	0.036940592 	0.023206642 	2.0437997
0.0015075377 	0.036940592 	0.023206642 	2.0437997
0.0015276382 	0.032634089 	0.013377981 	2.0325223
0.0015477387 	0.032634089 	0.013377981 	2.0325223
0.0015678392 	0.032634089 	0.013377981 	2.0325223
0.0015879397 	0.029444653 	0.0084455965 	2.0131927
0.0016080402 	0.029444653 	0.0084455965 	2.0131927
0.0016281407 	0.029444653 	0.0084455965 	2.0131927
0.0016482412 	0.016967772 	-0.0038813301 	1.9996469
0.0016683417 	0.016967772 	-0.0038813301 	1.9996469
0.0016884422 	0.011155067 	-0.030405736 	1.9929883
0.0017085427 	0.011155067 	-0.030405736 	1.9929883
0.0017286432 	0.011155067 	-0.030405736 	1.9929883
0.0017487437 	0.0080257149 	-0.060818666 	1.9870366
0.0017688442 	0.0080257149 	-0.060818666 	1.9870366
0.0017889447 	0.0080257149 	-0.060818666 	1.9870366
0.0018090452 	0.0021898521 	-0.067960871 	1.9896464
0.0018291457 	0.0021898521 	-0.067960871 	1.9896464
0.0018492462 	0.015097499 	-0.058643846 	2.0085501
0.0018693467 	0.015097499 	-0.058643846 	2.0085501
0.0018894472 	0.015097499 	-0.058643846 	2.0085501
0.0019095477 	0.01934831 	-0.051579133 	2.0462196
0.0019296482 	0.01934831 	-0.051579133 	2.0462196
0.0019497487 	0.018219458 	-0.056800588 	2.0950114
0.0019698492 	0.018219458 	-0.056800588 	2.0950114
0.0019899497 	0.018219458 	-0.056800588 	2.0950114
0.0020100503 	0.014124407 	-0.018854837 	2.0517251
0.0020301508 	0.014124407 	-0.018854837 	2.0517251
0.0020502513 	0.038470801 	0.017617639 	1.9709197
0.0020703518 	0.038470801 	0.017617639 	1.9709197
0.0020904523 	0.037024535 	0.045606588 	1.9167318
0.0021105528 	0.037024535 	0.045606588 	1.9167318
0.0021306533 	0.037024535 	0.045606588 	1.9167318
0.0021507538 	0.046919698 	0.032032351 	1.8844341
0.0021708543 	0.046919698 	0.032032351 	1.8844341
0.0021909548 	0.049226885 	0.017649266 	1.8672642
0.0022110553 	0.049226885 	0.017649266 	1.8672642
0.0022311558 	0.050153018 	0.0040368276 	1.866405
0.0022512563 	0.050153018 	0.0040368276 	1.866405
0.0022713568 	0.042900186 	-0.021255808 	1.8881012
0.0022914573 	0.042900186 	-0.021255808 	1.8881012
0.0023115578 	0.042900186 	-0.021255808 	1.8881012
0.0023316583 	0.036897995 	-0.075001124 	1.929267
0.0023517588 	0.036897995 	-0.075001124 	1.929267
0.0023718593 	0.026265921 	-0.11584531 	1.9532302
0.0023919598 	0.026265921 	-0.11584531 	1.9532302
0.0024120603 	0.011095008 	-0.11729243 	1.9501112
0.0024321608 	0.011095008 	-0.11729243 	1.9501112
0.0024522613 	0.017599045 	-0.087114202 	1.9252981
0.0024723618 	0.017599045 	-0.087114202 	1.9252981
0.0024924623 	0.026221334 	-0.064497101 	1.9003564
0.0025125628 	0.026221334 	-0.064497101 	1.9003564
0.0025326633 	0.025603193 	-0.046703282 	1.9116454
0.0025527638 	0.025603193 	-0.046703282 	1.9116454
0.0025728643 	0.031647262 	-0.0093875388 	1.9369052
0.0025929648 	0.031647262 	-0.0093875388 	1.9369052
0.0026130653 	0.014943299 	0.010735829 	1.9434163
0.0026331658 	0.014943299 	0.010735829 	1.9434163
0.0026532663 	0.018000461 	0.032227392 	1.9174106
0.0026733668 	0.018000461 	0.032227392 	1.9174106
0.0026934673 	0.023400419 	0.029061201 	1.9188701
0.0027135678 	0.023400419 	0.029061201 	1.9188701
0.0027336683 	0.01943522 	0.004235503 	1.9232616
0.0027537688 	0.01943522 	0.004235503 	1.9232616
0.0027738693 	0.02443359 	0.040609362 	1.8810528
0.0027939698 	0.02443359 	0.040609362 	1.8810528
0.0028140704 	0.0026730723 	0.049165184 	1.7985359
0.0028341709 	0.0026730723 	0.049165184 	1.7985359
0.0028542714 	-0.0082556883 	0.037766871 	1.8009476
0.0028743719 	-0.032827352 	-0.0031852965 	1.8122552
0.0028944724 	-0.032827352 	-0.0031852965 	1.8122552
0.0029145729 	-0.037443161 	-0.063078843 	1.7376111
0.0029346734 	-0.037443161 	-0.063078843 	1.7376111
0.0029547739 	-0.031492811 	-0.096251353 	1.7141936
0.0029748744 	-0.031492811 	-0.096251353 	1.7141936
0.0029949749 	-0.040325429 	-0.076703386 	1.7535409
0.0030150754 	-0.032567105 	-0.041718533 	1.7150416
0.0030351759 	-0.032567105 	-0.041718533 	1.7150416
0.0030552764 	-0.026043029 	-0.028794303 	1.664951
0.0030753769 	-0.026043029 	-0.028794303 	1.664951
0.0030954774 	-0.019325419 	-0.051338208 	1.6983676
0.0031155779 	-0.017334036 	-0.07940553 	1.7294217
0.0031356784 	-0.017334036 	-0.07940553 	1.7294217
0.0031557789 	-0.015214655 	-0.09015291 	1.7137675
0.0031758794 	-0.015214655 	-0.09015291 	1.7137675
0.0031959799 	-0.019379028 	-0.10124647 	1.7028412
0.0032160804 	-0.017992148 	-0.10666494 	1.7271142
0.0032361809 	-0.017992148 	-0.10666494 	1.7271142
0.0032562814 	-0.026671199 	-0.09361039 	1.7183355
0.0032763819 	-0.035736101 	-0.090397663 	1.7140617
0.0032964824 	-0.035736101 	-0.090397663 	1.7140617
0.0033165829 	-0.04961012 	-0.087057893 	1.7556802
0.0033366834 	-0.055189423 	-0.091807414 	1.7686988
0.0033567839 	-0.055189423 	-0.091807414 	1.7686988
0.0033768844 	-0.064683512 	-0.092872276 	1.7475791
0.0033969849 	-0.060658668 	-0.071364765 	1.708005
0.0034170854 	-0.060658668 	-0.071364765 	1.708005
0.0034371859 	-0.043589083 	-0.033801847 	1.7161964
0.0034572864 	-0.036956457 	0.018347375 	1.7320397
0.0034773869 	-0.024565089 	0.075904678 	1.7320286
0.0034974874 	-0.024565089 	0.075904678 	1.7320286
0.0035175879 	-0.017900251 	0.088004771 	1.7479258
0.0035376884 	-0.016295961 	0.048805422 	1.7841736
0.0035577889 	-0.012432638 	-0.027012093 	1.7833757
0.0035778894 	-0.012432638 	-0.027012093 	1.7833757
0.0035979899 	-0.0062934076 	-0.039392184 	1.7292266
0.0036180905 	-0.00092450254 	-0.0081178944 	1.639073
0.003638191 	0.0057114854 	0.039670281 	1.5196256
0.0036582915 	0.0057114854 	0.039670281 	1.5196256
0.003678392 	0.016465099 	0.068523587 	1.5075498
0.0036984925 	0.02425273 	0.064873191 	1.5998545
0.003718593 	0.040781561 	0.038433614 	1.6298715
0.0037386935 	0.05556271 	-0.02408398 	1.6212303
0.003758794 	0.050230363 	-0.075912484 	1.5957503
0.0037788945 	0.050230363 	-0.075912484 	1.5957503
0.003798995 	0.027649054 	-0.051999048 	1.5462163
0.0038190955 	0.0034064439 	0.0041054008 	1.5487378
0.003839196 	-0.034515839 	0.018836085 	1.5470215
0.0038592965 	-0.028390603 	0.022666797 	1.4674632
0.003879397 	-0.040772766 	0.086999622 	1.3989613
0.0038994975 	-0.021306498 	0.15794196 	1.3300651
0.003919598 	-0.028031522 	0.012665183 	1.2448495
0.0039396985 	-0.025737602 	-0.12141146 	1.0729361
0.003959799 	-0.026165607 	0.20624101 	1.0131982
0.0039798995 	0.0067128434 	-0.055867881 	0.73610692
0.004 	0.0067128434 	-0.055867881 	0.73610692
