0 	0.026906821 	-0.0027519641 	2.0580767
2.0100503e-05 	-0.0070370708 	-0.022798204 	2.0494509
4.0201005e-05 	-0.0070370708 	-0.022798204 	2.0494509
6.0301508e-05 	-0.016743254 	-0.015562242 	2.0433184
8.040201e-05 	-0.016743254 	-0.015562242 	2.0433184
0.00010050251 	-0.016743254 	-0.015562242 	2.0433184
0.00012060302 	-0.016762817 	-0.026307761 	2.0305743
0.00014070352 	-0.016762817 	-0.026307761 	2.0305743
0.00016080402 	-0.016762817 	-0.026307761 	2.0305743
0.00018090452 	-0.012513797 	-0.040806924 	2.0185383
0.00020100503 	-0.012513797 	-0.040806924 	2.0185383
0.00022110553 	-0.012513797 	-0.040806924 	2.0185383
0.00024120603 	-0.011314904 	-0.034998207 	2.0105538
0.00026130653 	-0.011314904 	-0.034998207 	2.0105538
0.00028140704 	-0.0077999635 	-0.030220774 	2.0505345
0.00030150754 	-0.0077999635 	-0.030220774 	2.0505345
0.00032160804 	-0.0077999635 	-0.030220774 	2.0505345
0.00034170854 	-0.0092293189 	-0.015980028 	2.0631346
0.00036180905 	-0.0092293189 	-0.015980028 	2.0631346
0.00038190955 	-0.0092293189 	-0.015980028 	2.0631346
0.00040201005 	-0.0083765821 	-0.0028188816 	2.0916938
0.00042211055 	-0.0083765821 	-0.0028188816 	2.0916938
0.00044221106 	-0.0083765821 	-0.0028188816 	2.0916938
0.00046231156 	-0.020774627 	0.003745334 	2.0968773
0.00048241206 	-0.020774627 	0.003745334 	2.0968773
0.00050251256 	-0.016089355 	0.014877781 	2.0786462
0.00052261307 	-0.016089355 	0.014877781 	2.0786462
0.00054271357 	-0.016089355 	0.014877781 	2.0786462
0.00056281407 	-0.011082059 	0.014545504 	2.0854116
0.00058291457 	-0.011082059 	0.014545504 	2.0854116
0.00060301508 	-0.011082059 	0.014545504 	2.0854116
0.00062311558 	-0.0018929981 	0.021441095 	2.0784493
0.00064321608 	-0.0018929981 	0.021441095 	2.0784493
0.00066331658 	-0.0018929981 	0.021441095 	2.0784493
0.00068341709 	0.0031363049 	0.025578572 	2.0557901
0.00070351759 	0.0031363049 	0.025578572 	2.0557901
0.00072361809 	0.012472111 	0.018403551 	2.0731382
0.00074371859 	0.012472111 	0.018403551 	2.0731382
0.0007638191 	0.012472111 	0.018403551 	2.0731382
0.0007839196 	0.016277737 	0.0026452469 	2.0963477
0.0008040201 	0.016277737 	0.0026452469 	2.0963477
0.0008241206 	0.016277737 	0.0026452469 	2.0963477
0.00084422111 	0.019077222 	-0.0039223588 	2.0852854
0.00086432161 	0.019077222 	-0.0039223588 	2.0852854
0.00088442211 	0.019077222 	-0.0039223588 	2.0852854
0.00090452261 	0.025154866 	-0.011408387 	2.0670153
0.00092462312 	0.025154866 	-0.011408387 	2.0670153
0.00094472362 	0.028110814 	-0.010700021 	2.0459088
0.00096482412 	0.012509095 	-0.017818848 	2.0383836
0.00098492462 	0.012509095 	-0.017818848 	2.0383836
0.0010050251 	0.027962805 	-0.015221697 	2.042533
0.0010251256 	0.027962805 	-0.015221697 	2.042533
0.0010452261 	0.027962805 	-0.015221697 	2.042533
0.0010653266 	0.040869811 	-0.0046397591 	2.0663199
0.0010854271 	0.040869811 	-0.0046397591 	2.0663199
0.0011055276 	0.040869811 	-0.0046397591 	2.0663199
0.0011256281 	0.053357291 	0.017669172 	2.08663
0.0011457286 	0.053357291 	0.017669172 	2.08663
0.0011658291 	0.040579401 	0.0016941703 	2.0627125
0.0011859296 	0.045918305 	0.02206097 	2.067507
0.0012060302 	0.053801085 	0.023729755 	2.0734154
0.0012261307 	0.053801085 	0.023729755 	2.0734154
0.0012462312 	0.063289503 	0.019302218 	2.0842743
0.0012663317 	0.063289503 	0.019302218 	2.0842743
0.0012864322 	0.063289503 	0.019302218 	2.0842743
0.0013065327 	0.048180609 	0.023353554 	2.0869305
0.0013266332 	0.048180609 	0.023353554 	2.0869305
0.0013467337 	0.048180609 	0.023353554 	2.0869305
0.0013668342 	0.052927637 	0.023239618 	2.114295
0.0013869347 	0.052927637 	0.023239618 	2.114295
0.0014070352 	0.054146735 	0.020344568 	2.0459177
0.0014271357 	0.044259908 	0.030480706 	2.0921331
0.0014472362 	0.042312701 	0.0074404165 	2.0702189
0.0014673367 	0.042312701 	0.0074404165 	2.0702189
0.0014874372 	0.03933451 	-0.02487702 	2.0154244
0.0015075377 	0.03933451 	-0.02487702 	2.0154244
0.0015276382 	0.034182033 	-0.015957036 	2.0456196
0.0015477387 	0.034182033 	-0.015957036 	2.0456196
0.0015678392 	0.034182033 	-0.015957036 	2.0456196
0.0015879397 	0.05023526 	-0.035220557 	2.0448765
0.0016080402 	0.05023526 	-0.035220557 	2.0448765
0.0016281407 	0.05023526 	-0.035220557 	2.0448765
0.0016482412 	0.043664212 	-0.04810573 	2.0841005
0.0016683417 	0.043664212 	-0.04810573 	2.0841005
0.0016884422 	0.067130414 	-0.013417252 	2.0298302
0.0017085427 	0.067130414 	-0.013417252 	2.0298302
0.0017286432 	0.067130414 	-0.013417252 	2.0298302
0.0017487437 	0.067673112 	0.0084861601 	2.0242086
0.0017688442 	0.067673112 	0.0084861601 	2.0242086
0.0017889447 	0.067673112 	0.0084861601 	2.0242086
0.0018090452 	0.068859966 	0.014204923 	2.0410037
0.0018291457 	0.068859966 	0.014204923 	2.0410037
0.0018492462 	0.072732037 	-0.0038753969 	2.0219064
0.0018693467 	0.072732037 	-0.0038753969 	2.0219064
0.0018894472 	0.072732037 	-0.0038753969 	2.0219064
0.0019095477 	0.058719764 	-0.020874628 	2.0452229
0.0019296482 	0.058719764 	-0.020874628 	2.0452229
0.0019497487 	0.055314423 	-0.026916002 	2.0235956
0.0019698492 	0.055314423 	-0.026916002 	2.0235956
0.0019899497 	0.018325721 	-0.026350635 	2.0096179
0.0020100503 	0.058200092 	-0.020853534 	1.9861707
0.0020301508 	0.058200092 	-0.020853534 	1.9861707
0.0020502513 	0.064782828 	0.008209175 	2.0260014
0.0020703518 	0.064782828 	0.008209175 	2.0260014
0.0020904523 	0.066630838 	0.0026886857 	1.9954432
0.0021105528 	0.066630838 	0.0026886857 	1.9954432
0.0021306533 	0.066630838 	0.0026886857 	1.9954432
0.0021507538 	0.051491044 	-0.011582134 	1.9521708
0.0021708543 	0.051491044 	-0.011582134 	1.9521708
0.0021909548 	0.034019038 	0.013800861 	1.9488664
0.0022110553 	0.034019038 	0.013800861 	1.9488664
0.0022311558 	0.026719524 	0.040075516 	1.9385208
0.0022512563 	0.026719524 	0.040075516 	1.9385208
0.0022713568 	0.025599575 	0.042564604 	1.9409592
0.0022914573 	0.025599575 	0.042564604 	1.9409592
0.0023115578 	0.025599575 	0.042564604 	1.9409592
0.0023316583 	0.021057207 	0.064823047 	1.9433999
0.0023517588 	0.021057207 	0.064823047 	1.9433999
0.0023718593 	0.032531935 	0.091577756 	1.9521703
0.0023919598 	0.032531935 	0.091577756 	1.9521703
0.0024120603 	0.036414858 	0.089462507 	1.9563439
0.0024321608 	0.036414858 	0.089462507 	1.9563439
0.0024522613 	0.039333343 	0.085613729 	1.9436741
0.0024723618 	0.039333343 	0.085613729 	1.9436741
0.0024924623 	0.031230629 	0.076147785 	1.8903638
0.0025125628 	0.031230629 	0.076147785 	1.8903638
0.0025326633 	0.025918945 	0.061962212 	1.8550033
0.0025527638 	0.025918945 	0.061962212 	1.8550033
0.0025728643 	0.02122203 	0.076914343 	1.8641001
0.0025929648 	0.02122203 	0.076914343 	1.8641001
0.0026130653 	0.016355826 	0.085072826 	1.8786814
0.0026331658 	0.016355826 	0.085072826 	1.8786814
0.0026532663 	0.028460871 	0.076382025 	1.8845496
0.0026733668 	0.028460871 	0.076382025 	1.8845496
0.0026934673 	0.039314538 	0.055023664 	1.8624203
0.0027135678 	0.039314538 	0.055023664 	1.8624203
0.0027336683 	0.053470505 	0.038471743 	1.8223462
0.0027537688 	0.053470505 	0.038471743 	1.8223462
0.0027738693 	0.063011241 	0.054652429 	1.80817
0.0027939698 	0.063011241 	0.054652429 	1.80817
0.0028140704 	0.064525424 	0.023235946 	1.8564986
0.0028341709 	0.064525424 	0.023235946 	1.8564986
0.0028542714 	0.055861353 	-0.036142888 	1.880434
0.0028743719 	0.06435889 	-0.059138792 	1.8570532
0.0028944724 	0.06435889 	-0.059138792 	1.8570532
0.0029145729 	0.082082751 	-0.055512736 	1.8624732
0.0029346734 	0.082082751 	-0.055512736 	1.8624732
0.0029547739 	0.089546502 	-0.048204347 	1.8624297
0.0029748744 	0.089546502 	-0.048204347 	1.8624297
0.0029949749 	0.095911826 	-0.03980443 	1.879341
0.0030150754 	0.091961833 	-0.023767922 	1.9237558
0.0030351759 	0.091961833 	-0.023767922 	1.9237558
0.0030552764 	0.10041661 	-0.038787761 	1.9110098
0.0030753769 	0.10041661 	-0.038787761 	1.9110098
0.0030954774 	0.1088867 	-0.075469581 	1.8942832
0.0031155779 	0.1162136 	-0.11692704 	1.8784386
0.0031356784 	0.1162136 	-0.11692704 	1.8784386
0.0031557789 	0.11182823 	-0.19054173 	1.8696897
0.0031758794 	0.11182823 	-0.19054173 	1.8696897
0.0031959799 	0.10359729 	-0.24620219 	1.8678921
0.0032160804 	0.097787936 	-0.24042819 	1.8482516
0.0032361809 	0.097787936 	-0.24042819 	1.8482516
0.0032562814 	0.09118739 	-0.20678769 	1.7919649
0.0032763819 	0.083460738 	-0.19122412 	1.7238651
0.0032964824 	0.083460738 	-0.19122412 	1.7238651
0.0033165829 	0.090160963 	-0.14656264 	1.7446778
0.0033366834 	0.10524798 	-0.094997017 	1.763188
0.0033567839 	0.10524798 	-0.094997017 	1.763188
0.0033768844 	0.10777443 	-0.07144931 	1.7944463
0.0033969849 	0.11213748 	-0.056301322 	1.814441
0.0034170854 	0.11213748 	-0.056301322 	1.814441
0.0034371859 	0.11485822 	-0.024356286 	1.8267262
0.0034572864 	0.11892706 	0.0079668623 	1.8427399
0.0034773869 	0.1284735 	0.026791144 	1.864748
0.0034974874 	0.1284735 	0.026791144 	1.864748
0.0035175879 	0.12293935 	0.038301625 	1.8565641
0.0035376884 	0.12365071 	0.053848439 	1.8549316
0.0035577889 	0.12044417 	0.055508986 	1.8910297
0.0035778894 	0.12044417 	0.055508986 	1.8910297
0.0035979899 	0.12816845 	0.056431721 	1.8843291
0.0036180905 	0.13294213 	0.096144628 	1.8122497
0.003638191 	0.1361424 	0.12277865 	1.7541603
0.0036582915 	0.1361424 	0.12277865 	1.7541603
0.003678392 	0.14258441 	0.076105035 	1.7294237
0.0036984925 	0.13836371 	7.8791837e-05 	1.7329474
0.003718593 	0.14365511 	-0.044524147 	1.7230798
0.0037386935 	0.14386622 	-0.048346627 	1.6401137
0.003758794 	0.13717879 	0.00034554478 	1.6083828
0.0037788945 	0.13717879 	0.00034554478 	1.6083828
0.003798995 	0.13615971 	0.19423247 	1.5736594
0.0038190955 	0.11665871 	0.40539603 	1.4681109
0.003839196 	0.093460428 	0.36526322 	1.5105626
0.0038592965 	0.065673702 	0.1854882 	1.6994754
0.003879397 	0.071854986 	0.10988707 	1.6627813
0.0038994975 	0.068368499 	0.02855628 	1.5822914
0.003919598 	0.074585696 	-0.23661214 	1.5377148
0.0039396985 	0.062822405 	0.0033582857 	1.7336955
0.003959799 	0.027120997 	0.045366402 	1.172754
0.0039798995 	0.0064666149 	-0.12188321 	0.40947847
0.004 	0.0064666149 	-0.12188321 	0.40947847
