0 	0.0068063771 	0.00022581893 	2.0880517
2.0100503e-05 	0.013913347 	0.02280168 	2.0570866
4.0201005e-05 	0.013913347 	0.02280168 	2.0570866
6.0301508e-05 	0.0058542103 	0.046560956 	2.0356336
8.040201e-05 	0.0058542103 	0.046560956 	2.0356336
0.00010050251 	0.0058542103 	0.046560956 	2.0356336
0.00012060302 	-0.0091363324 	0.050895573 	2.0130266
0.00014070352 	-0.0091363324 	0.050895573 	2.0130266
0.00016080402 	-0.0091363324 	0.050895573 	2.0130266
0.00018090452 	-0.022741679 	0.034418041 	2.0170725
0.00020100503 	-0.022741679 	0.034418041 	2.0170725
0.00022110553 	-0.022741679 	0.034418041 	2.0170725
0.00024120603 	-0.040473148 	0.0086650406 	2.0527912
0.00026130653 	-0.040473148 	0.0086650406 	2.0527912
0.00028140704 	-0.045326907 	-0.011638652 	2.0819817
0.00030150754 	-0.045326907 	-0.011638652 	2.0819817
0.00032160804 	-0.045326907 	-0.011638652 	2.0819817
0.00034170854 	-0.04485143 	-0.0087756321 	2.087265
0.00036180905 	-0.04485143 	-0.0087756321 	2.087265
0.00038190955 	-0.04485143 	-0.0087756321 	2.087265
0.00040201005 	-0.038276027 	0.0009828558 	2.0821968
0.00042211055 	-0.038276027 	0.0009828558 	2.0821968
0.00044221106 	-0.038276027 	0.0009828558 	2.0821968
0.00046231156 	-0.037209741 	-0.0032555583 	2.0560026
0.00048241206 	-0.037209741 	-0.0032555583 	2.0560026
0.00050251256 	-0.039453147 	-0.02239955 	2.0244615
0.00052261307 	-0.039453147 	-0.02239955 	2.0244615
0.00054271357 	-0.039453147 	-0.02239955 	2.0244615
0.00056281407 	-0.03304037 	-0.047892667 	2.0182391
0.00058291457 	-0.03304037 	-0.047892667 	2.0182391
0.00060301508 	-0.03304037 	-0.047892667 	2.0182391
0.00062311558 	-0.021966273 	-0.058280478 	2.0112671
0.00064321608 	-0.021966273 	-0.058280478 	2.0112671
0.00066331658 	-0.021966273 	-0.058280478 	2.0112671
0.00068341709 	-0.01626895 	-0.058756906 	2.0006087
0.00070351759 	-0.01626895 	-0.058756906 	2.0006087
0.00072361809 	-0.01572771 	-0.058591491 	1.9938136
0.00074371859 	-0.01572771 	-0.058591491 	1.9938136
0.0007638191 	-0.01572771 	-0.058591491 	1.9938136
0.0007839196 	-0.025844859 	-0.056728469 	1.9779344
0.0008040201 	-0.025844859 	-0.056728469 	1.9779344
0.0008241206 	-0.025844859 	-0.056728469 	1.9779344
0.00084422111 	-0.035001728 	-0.054977416 	1.9501666
0.00086432161 	-0.035001728 	-0.054977416 	1.9501666
0.00088442211 	-0.035001728 	-0.054977416 	1.9501666
0.00090452261 	-0.044185406 	-0.048582335 	1.9395406
0.00092462312 	-0.044185406 	-0.048582335 	1.9395406
0.00094472362 	-0.042017796 	-0.034352495 	1.9319871
0.00096482412 	-0.042017796 	-0.034352495 	1.9319871
0.00098492462 	-0.028503417 	-0.035895033 	1.9464645
0.0010050251 	-0.030602049 	-0.019831399 	1.9387769
0.0010251256 	-0.030602049 	-0.019831399 	1.9387769
0.0010452261 	-0.030602049 	-0.019831399 	1.9387769
0.0010653266 	-0.031839919 	-0.018140894 	1.9501832
0.0010854271 	-0.031839919 	-0.018140894 	1.9501832
0.0011055276 	-0.031839919 	-0.018140894 	1.9501832
0.0011256281 	-0.023376543 	-0.013397216 	1.9851948
0.0011457286 	-0.023376543 	-0.013397216 	1.9851948
0.0011658291 	-0.036370779 	-0.0088035967 	1.9908275
0.0011859296 	-0.028191277 	-0.012087827 	2.0149801
0.0012060302 	-0.020967148 	-0.014537446 	1.9983868
0.0012261307 	-0.020967148 	-0.014537446 	1.9983868
0.0012462312 	-0.022726964 	-0.026796076 	1.9945485
0.0012663317 	-0.022726964 	-0.026796076 	1.9945485
0.0012864322 	-0.022726964 	-0.026796076 	1.9945485
0.0013065327 	-0.019018481 	-0.029971137 	1.9601105
0.0013266332 	-0.019018481 	-0.029971137 	1.9601105
0.0013467337 	-0.019018481 	-0.029971137 	1.9601105
0.0013668342 	-0.019758852 	0.0043690853 	1.9343507
0.0013869347 	-0.019758852 	0.0043690853 	1.9343507
0.0014070352 	-0.019758852 	0.0043690853 	1.9343507
0.0014271357 	-0.025831408 	0.014350602 	1.9627668
0.0014472362 	-0.025831408 	0.014350602 	1.9627668
0.0014673367 	-0.025831408 	0.014350602 	1.9627668
0.0014874372 	-0.034408538 	0.0055433797 	1.9403284
0.0015075377 	-0.034408538 	0.0055433797 	1.9403284
0.0015276382 	-0.043030903 	0.018316317 	1.9483141
0.0015477387 	-0.043030903 	0.018316317 	1.9483141
0.0015678392 	-0.043030903 	0.018316317 	1.9483141
0.0015879397 	-0.047605329 	0.014359343 	1.9738202
0.0016080402 	-0.047605329 	0.014359343 	1.9738202
0.0016281407 	-0.047605329 	0.014359343 	1.9738202
0.0016482412 	-0.040045139 	0.028785774 	1.9442089
0.0016683417 	-0.040045139 	0.028785774 	1.9442089
0.0016884422 	-0.035213896 	0.020321822 	1.9015276
0.0017085427 	-0.035213896 	0.020321822 	1.9015276
0.0017286432 	-0.035213896 	0.020321822 	1.9015276
0.0017487437 	-0.032589188 	0.0054406998 	1.8714446
0.0017688442 	-0.032589188 	0.0054406998 	1.8714446
0.0017889447 	-0.032589188 	0.0054406998 	1.8714446
0.0018090452 	-0.041590119 	0.019001512 	1.8701425
0.0018291457 	-0.041590119 	0.019001512 	1.8701425
0.0018492462 	-0.03542226 	0.025613571 	1.8637884
0.0018693467 	-0.03542226 	0.025613571 	1.8637884
0.0018894472 	-0.03542226 	0.025613571 	1.8637884
0.0019095477 	-0.023190986 	0.010435736 	1.8601831
0.0019296482 	-0.023190986 	0.010435736 	1.8601831
0.0019497487 	-0.025118616 	0.01769199 	1.8856643
0.0019698492 	-0.025118616 	0.01769199 	1.8856643
0.0019899497 	-0.0077272134 	0.035113281 	1.9120662
0.0020100503 	-0.0077272134 	0.035113281 	1.9120662
0.0020301508 	-0.0077272134 	0.035113281 	1.9120662
0.0020502513 	-0.014116377 	0.041829677 	1.9130789
0.0020703518 	-0.014116377 	0.041829677 	1.9130789
0.0020904523 	-0.026960433 	0.023289609 	1.9475336
0.0021105528 	-0.026960433 	0.023289609 	1.9475336
0.0021306533 	-0.026960433 	0.023289609 	1.9475336
0.0021507538 	-0.034978519 	-0.0055936605 	1.9419376
0.0021708543 	-0.034978519 	-0.0055936605 	1.9419376
0.0021909548 	-0.031924974 	-0.0086806462 	1.9163128
0.0022110553 	-0.031924974 	-0.0086806462 	1.9163128
0.0022311558 	-0.021856413 	0.0074346417 	1.9035091
0.0022512563 	-0.021856413 	0.0074346417 	1.9035091
0.0022713568 	-0.0048527358 	0.0071733738 	1.8647016
0.0022914573 	-0.0048527358 	0.0071733738 	1.8647016
0.0023115578 	-0.0048527358 	0.0071733738 	1.8647016
0.0023316583 	-0.0072412545 	0.033820494 	1.8758753
0.0023517588 	-0.0072412545 	0.033820494 	1.8758753
0.0023718593 	-0.0095532409 	0.083157774 	1.9130762
0.0023919598 	-0.0095532409 	0.083157774 	1.9130762
0.0024120603 	-0.021279491 	0.096262198 	1.9294747
0.0024321608 	-0.021279491 	0.096262198 	1.9294747
0.0024522613 	-0.022145537 	0.1136339 	1.9272539
0.0024723618 	-0.022145537 	0.1136339 	1.9272539
0.0024924623 	-0.012126641 	0.10183355 	1.8536538
0.0025125628 	-0.012126641 	0.10183355 	1.8536538
0.0025326633 	0.003202214 	0.063023314 	1.8550581
0.0025527638 	0.003202214 	0.063023314 	1.8550581
0.0025728643 	0.022290162 	0.046842471 	1.8524839
0.0025929648 	0.022290162 	0.046842471 	1.8524839
0.0026130653 	0.041340316 	0.037049368 	1.8700536
0.0026331658 	0.041340316 	0.037049368 	1.8700536
0.0026532663 	0.054097543 	0.049391506 	1.8626482
0.0026733668 	0.054097543 	0.049391506 	1.8626482
0.0026934673 	0.060971202 	0.070247726 	1.9068985
0.0027135678 	0.060971202 	0.070247726 	1.9068985
0.0027336683 	0.066327531 	0.08167976 	1.8988344
0.0027537688 	0.066327531 	0.08167976 	1.8988344
0.0027738693 	0.075099062 	0.079629959 	1.8974714
0.0027939698 	0.075099062 	0.079629959 	1.8974714
0.0028140704 	0.076242756 	0.068248647 	1.913633
0.0028341709 	0.076242756 	0.068248647 	1.913633
0.0028542714 	0.085737862 	0.067530007 	1.8849398
0.0028743719 	0.08089982 	0.054547114 	1.876395
0.0028944724 	0.08089982 	0.054547114 	1.876395
0.0029145729 	0.075203322 	0.054690547 	1.934066
0.0029346734 	0.075203322 	0.054690547 	1.934066
0.0029547739 	0.045129635 	0.088380999 	1.9534816
0.0029748744 	0.045129635 	0.088380999 	1.9534816
0.0029949749 	0.025845996 	0.068567465 	1.9533104
0.0030150754 	0.020228451 	-0.0091731737 	1.9397197
0.0030351759 	0.020228451 	-0.0091731737 	1.9397197
0.0030552764 	0.021344901 	-0.048523897 	1.893806
0.0030753769 	0.021344901 	-0.048523897 	1.893806
0.0030954774 	0.029130958 	-0.041631042 	1.8323534
0.0031155779 	0.034423656 	-0.03966623 	1.8405198
0.0031356784 	0.034423656 	-0.03966623 	1.8405198
0.0031557789 	0.028169627 	-0.035444304 	1.8289542
0.0031758794 	0.028169627 	-0.035444304 	1.8289542
0.0031959799 	0.023032893 	-0.033788029 	1.7856562
0.0032160804 	0.039940658 	-0.031024923 	1.7484756
0.0032361809 	0.039940658 	-0.031024923 	1.7484756
0.0032562814 	0.058736341 	-0.01947781 	1.7442485
0.0032763819 	0.06184815 	-0.010683151 	1.7442945
0.0032964824 	0.06184815 	-0.010683151 	1.7442945
0.0033165829 	0.05901861 	-0.016242271 	1.7441486
0.0033366834 	0.054717327 	-0.022127165 	1.741413
0.0033567839 	0.054717327 	-0.022127165 	1.741413
0.0033768844 	0.046489689 	0.012680869 	1.7192831
0.0033969849 	0.041758573 	0.05868976 	1.7476324
0.0034170854 	0.041758573 	0.05868976 	1.7476324
0.0034371859 	0.031519189 	0.048134681 	1.824859
0.0034572864 	0.036028013 	-0.0092159517 	1.8478285
0.0034773869 	0.033434088 	-0.060308962 	1.8201171
0.0034974874 	0.033434088 	-0.060308962 	1.8201171
0.0035175879 	0.030836852 	-0.10748416 	1.7801007
0.0035376884 	0.027946076 	-0.11997681 	1.7191801
0.0035577889 	0.023724044 	-0.092762829 	1.6684933
0.0035778894 	0.023724044 	-0.092762829 	1.6684933
0.0035979899 	0.021523372 	-0.054612677 	1.6449572
0.0036180905 	0.024209356 	-0.04292676 	1.6484952
0.003638191 	0.031012174 	-0.053259534 	1.6535614
0.0036582915 	0.031012174 	-0.053259534 	1.6535614
0.003678392 	0.026270214 	-0.044242027 	1.637012
0.0036984925 	0.011965266 	0.010302101 	1.621099
0.003718593 	0.0026752872 	0.10935751 	1.5877988
0.0037386935 	0.0036388726 	0.18376562 	1.5433644
0.003758794 	0.0091321643 	0.20651898 	1.4885739
0.0037788945 	0.0091321643 	0.20651898 	1.4885739
0.003798995 	0.0097405335 	0.13088665 	1.4924694
0.0038190955 	0.01054903 	0.039650073 	1.5169129
0.003839196 	0.0039683652 	0.029232384 	1.5977718
0.0038592965 	0.015165843 	0.087958447 	1.710629
0.003879397 	-0.012918553 	0.14394571 	1.6661585
0.0038994975 	9.0556031e-05 	-0.0014100458 	1.588572
0.003919598 	0.0062072398 	0.038200195 	1.5657337
0.0039396985 	0.03843059 	-0.060670997 	1.4431381
0.003959799 	0.040498803 	-0.24835881 	1.1989766
0.0039798995 	0.03235796 	-0.024196566 	0.91622529
0.004 	0.03235796 	-0.024196566 	0.91622529
