0 	0.0093918292 	-0.0090349663 	2.0904788
2.0100503e-05 	-0.0052394924 	-0.0041658945 	2.0757504
4.0201005e-05 	-0.0052394924 	-0.0041658945 	2.0757504
6.0301508e-05 	0.00053352352 	0.0013848104 	2.0760867
8.040201e-05 	0.00053352352 	0.0013848104 	2.0760867
0.00010050251 	0.00053352352 	0.0013848104 	2.0760867
0.00012060302 	-0.0049426348 	-0.0033970662 	2.0722886
0.00014070352 	-0.0049426348 	-0.0033970662 	2.0722886
0.00016080402 	-0.0049426348 	-0.0033970662 	2.0722886
0.00018090452 	-0.0092814713 	-0.00011371697 	2.0679982
0.00020100503 	-0.0092814713 	-0.00011371697 	2.0679982
0.00022110553 	-0.0092814713 	-0.00011371697 	2.0679982
0.00024120603 	-0.014038078 	0.0078996368 	2.0778107
0.00026130653 	-0.014038078 	0.0078996368 	2.0778107
0.00028140704 	-0.011320124 	0.017186043 	2.0921666
0.00030150754 	-0.011320124 	0.017186043 	2.0921666
0.00032160804 	-0.011320124 	0.017186043 	2.0921666
0.00034170854 	-0.014590108 	0.0089801851 	2.056825
0.00036180905 	-0.014590108 	0.0089801851 	2.056825
0.00038190955 	-0.014590108 	0.0089801851 	2.056825
0.00040201005 	-0.019678129 	0.00076949564 	2.0311752
0.00042211055 	-0.019678129 	0.00076949564 	2.0311752
0.00044221106 	-0.019678129 	0.00076949564 	2.0311752
0.00046231156 	-0.021424159 	0.00084406529 	2.0586174
0.00048241206 	-0.021424159 	0.00084406529 	2.0586174
0.00050251256 	-0.0134882 	-0.002201381 	2.0822201
0.00052261307 	-0.0134882 	-0.002201381 	2.0822201
0.00054271357 	-0.0134882 	-0.002201381 	2.0822201
0.00056281407 	-0.005219588 	-0.0044505134 	2.07898
0.00058291457 	-0.005219588 	-0.0044505134 	2.07898
0.00060301508 	-0.005219588 	-0.0044505134 	2.07898
0.00062311558 	-0.0074109614 	-0.0062397687 	2.060813
0.00064321608 	-0.0074109614 	-0.0062397687 	2.060813
0.00066331658 	-0.0074109614 	-0.0062397687 	2.060813
0.00068341709 	-0.0067573089 	-0.01380223 	2.0800127
0.00070351759 	-0.0067573089 	-0.01380223 	2.0800127
0.00072361809 	-0.0078895323 	-0.0091395045 	2.0875225
0.00074371859 	-0.0078895323 	-0.0091395045 	2.0875225
0.0007638191 	-0.0078895323 	-0.0091395045 	2.0875225
0.0007839196 	-0.0031161643 	-0.021375297 	2.0345389
0.0008040201 	-0.0031161643 	-0.021375297 	2.0345389
0.0008241206 	-0.0031161643 	-0.021375297 	2.0345389
0.00084422111 	0.0099491344 	-0.020964757 	1.997551
0.00086432161 	0.0099491344 	-0.020964757 	1.997551
0.00088442211 	0.0099491344 	-0.020964757 	1.997551
0.00090452261 	0.012799327 	-0.011150196 	2.0069867
0.00092462312 	0.012799327 	-0.011150196 	2.0069867
0.00094472362 	0.018737238 	-0.012363139 	2.02247
0.00096482412 	0.018737238 	-0.012363139 	2.02247
0.00098492462 	0.018737238 	-0.012363139 	2.02247
0.0010050251 	0.013980631 	-0.015187269 	2.0160716
0.0010251256 	0.013980631 	-0.015187269 	2.0160716
0.0010452261 	0.013980631 	-0.015187269 	2.0160716
0.0010653266 	0.023156175 	-0.0069518648 	2.0643393
0.0010854271 	0.023156175 	-0.0069518648 	2.0643393
0.0011055276 	0.0066847924 	-0.014095593 	2.0461886
0.0011256281 	0.0065926038 	1.4428987e-05 	2.0601475
0.0011457286 	0.0065926038 	1.4428987e-05 	2.0601475
0.0011658291 	0.0065926038 	1.4428987e-05 	2.0601475
0.0011859296 	0.0012908902 	-0.0060291242 	2.0647682
0.0012060302 	0.011185626 	-0.015859678 	2.1156672
0.0012261307 	0.011185626 	-0.015859678 	2.1156672
0.0012462312 	-0.0072903879 	-0.037114621 	2.0677675
0.0012663317 	-0.0072903879 	-0.037114621 	2.0677675
0.0012864322 	-0.0072903879 	-0.037114621 	2.0677675
0.0013065327 	0.0027902813 	-0.039996697 	2.0136732
0.0013266332 	0.0027902813 	-0.039996697 	2.0136732
0.0013467337 	0.0027902813 	-0.039996697 	2.0136732
0.0013668342 	0.0065105059 	-0.02997298 	1.9994697
0.0013869347 	0.0065105059 	-0.02997298 	1.9994697
0.0014070352 	0.0065105059 	-0.02997298 	1.9994697
0.0014271357 	0.019920597 	-0.012961209 	1.9863527
0.0014472362 	0.019920597 	-0.012961209 	1.9863527
0.0014673367 	0.019920597 	-0.012961209 	1.9863527
0.0014874372 	0.033300991 	-0.024340612 	1.9904349
0.0015075377 	0.033300991 	-0.024340612 	1.9904349
0.0015276382 	0.022425614 	-0.076720677 	2.0132704
0.0015477387 	0.022425614 	-0.076720677 	2.0132704
0.0015678392 	0.048747118 	-0.050731574 	2.0033684
0.0015879397 	0.01743997 	-0.075111067 	2.0097753
0.0016080402 	0.021854036 	-0.099733273 	1.9933741
0.0016281407 	0.021854036 	-0.099733273 	1.9933741
0.0016482412 	-0.0048150891 	-0.10034936 	1.9605062
0.0016683417 	-0.0048150891 	-0.10034936 	1.9605062
0.0016884422 	-0.018256373 	-0.077326666 	1.9262538
0.0017085427 	-0.018256373 	-0.077326666 	1.9262538
0.0017286432 	-0.018256373 	-0.077326666 	1.9262538
0.0017487437 	-0.035762699 	-0.073940633 	1.7821829
0.0017688442 	-0.035762699 	-0.073940633 	1.7821829
0.0017889447 	-0.035762699 	-0.073940633 	1.7821829
0.0018090452 	-0.042748724 	-0.10463802 	1.7708344
0.0018291457 	-0.042748724 	-0.10463802 	1.7708344
0.0018492462 	-0.042318817 	-0.13620785 	1.817785
0.0018693467 	-0.042318817 	-0.13620785 	1.817785
0.0018894472 	-0.042318817 	-0.13620785 	1.817785
0.0019095477 	-0.035660237 	-0.12157069 	1.8343414
0.0019296482 	-0.035660237 	-0.12157069 	1.8343414
0.0019497487 	-0.049353481 	-0.069818348 	1.8477023
0.0019698492 	-0.049353481 	-0.069818348 	1.8477023
0.0019899497 	-0.049952668 	-0.053766915 	1.8624007
0.0020100503 	-0.049952668 	-0.053766915 	1.8624007
0.0020301508 	-0.049952668 	-0.053766915 	1.8624007
0.0020502513 	-0.049423088 	-0.047154453 	1.8376112
0.0020703518 	-0.049423088 	-0.047154453 	1.8376112
0.0020904523 	-0.023867564 	-0.017619111 	1.8427527
0.0021105528 	-0.023867564 	-0.017619111 	1.8427527
0.0021306533 	-0.023867564 	-0.017619111 	1.8427527
0.0021507538 	-0.014011163 	0.023673848 	1.8575821
0.0021708543 	-0.014011163 	0.023673848 	1.8575821
0.0021909548 	-3.861866e-05 	0.005798408 	1.8712511
0.0022110553 	-3.861866e-05 	0.005798408 	1.8712511
0.0022311558 	-0.0062148836 	0.0023180457 	1.8766047
0.0022512563 	-0.0062148836 	0.0023180457 	1.8766047
0.0022713568 	0.0037534791 	-0.01414643 	1.8722703
0.0022914573 	0.0037534791 	-0.01414643 	1.8722703
0.0023115578 	0.0037534791 	-0.01414643 	1.8722703
0.0023316583 	0.0010398369 	-0.038566463 	1.8534908
0.0023517588 	0.0010398369 	-0.038566463 	1.8534908
0.0023718593 	0.020226457 	0.028984888 	1.8493101
0.0023919598 	0.020226457 	0.028984888 	1.8493101
0.0024120603 	0.021957577 	0.029093789 	1.8439792
0.0024321608 	0.021957577 	0.029093789 	1.8439792
0.0024522613 	0.03683101 	0.052290037 	1.8497907
0.0024723618 	0.03683101 	0.052290037 	1.8497907
0.0024924623 	0.024223689 	0.054161188 	1.8776596
0.0025125628 	0.024223689 	0.054161188 	1.8776596
0.0025326633 	0.017941424 	0.023907099 	1.8507168
0.0025527638 	0.017941424 	0.023907099 	1.8507168
0.0025728643 	0.0054849306 	0.04349626 	1.814789
0.0025929648 	0.0054849306 	0.04349626 	1.814789
0.0026130653 	0.012349295 	0.063579151 	1.8056738
0.0026331658 	0.012349295 	0.063579151 	1.8056738
0.0026532663 	0.02099684 	0.037875105 	1.7699776
0.0026733668 	0.02099684 	0.037875105 	1.7699776
0.0026934673 	0.020768095 	0.011153281 	1.7897615
0.0027135678 	0.020768095 	0.011153281 	1.7897615
0.0027336683 	0.020201956 	0.011342673 	1.8146641
0.0027537688 	0.020201956 	0.011342673 	1.8146641
0.0027738693 	0.015807962 	0.012506047 	1.8376966
0.0027939698 	0.015807962 	0.012506047 	1.8376966
0.0028140704 	0.017956665 	0.014463497 	1.8932914
0.0028341709 	0.017956665 	0.014463497 	1.8932914
0.0028542714 	0.022383551 	0.023374423 	1.9538263
0.0028743719 	0.018340654 	0.012080365 	1.9660662
0.0028944724 	0.018340654 	0.012080365 	1.9660662
0.0029145729 	0.016257093 	-0.024720782 	1.9555147
0.0029346734 	0.016257093 	-0.024720782 	1.9555147
0.0029547739 	0.00088444634 	0.0020627726 	1.8616006
0.0029748744 	0.00088444634 	0.0020627726 	1.8616006
0.0029949749 	0.024126651 	0.0063219685 	1.8568691
0.0030150754 	0.019908371 	-0.022872055 	1.8364843
0.0030351759 	0.019908371 	-0.022872055 	1.8364843
0.0030552764 	0.027699035 	-0.043051443 	1.8026305
0.0030753769 	0.027699035 	-0.043051443 	1.8026305
0.0030954774 	0.028081772 	-0.039762822 	1.7793675
0.0031155779 	0.024276245 	-0.019396687 	1.7126527
0.0031356784 	0.024276245 	-0.019396687 	1.7126527
0.0031557789 	0.021145067 	0.014248114 	1.6736748
0.0031758794 	0.021145067 	0.014248114 	1.6736748
0.0031959799 	0.012094555 	0.037022304 	1.6674686
0.0032160804 	0.0016530693 	0.052421752 	1.6549369
0.0032361809 	0.0016530693 	0.052421752 	1.6549369
0.0032562814 	-0.011218161 	0.060216996 	1.6557235
0.0032763819 	-0.023900828 	0.068499317 	1.6475204
0.0032964824 	-0.023900828 	0.068499317 	1.6475204
0.0033165829 	-0.038041083 	0.04580648 	1.6450714
0.0033366834 	-0.040431894 	0.012614492 	1.661023
0.0033567839 	-0.040431894 	0.012614492 	1.661023
0.0033768844 	-0.037695636 	-0.0043648453 	1.6707437
0.0033969849 	-0.037176211 	-0.039052153 	1.6911622
0.0034170854 	-0.037176211 	-0.039052153 	1.6911622
0.0034371859 	-0.039859671 	-0.091685837 	1.7081455
0.0034572864 	-0.042411824 	-0.11991858 	1.6949525
0.0034773869 	-0.042729882 	-0.13826119 	1.6626009
0.0034974874 	-0.042729882 	-0.13826119 	1.6626009
0.0035175879 	-0.039308031 	-0.12765339 	1.63578
0.0035376884 	-0.035499089 	-0.099138203 	1.6149418
0.0035577889 	-0.034435683 	-0.039012729 	1.6029526
0.0035778894 	-0.034435683 	-0.039012729 	1.6029526
0.0035979899 	-0.03168156 	0.020035739 	1.6055619
0.0036180905 	-0.039832886 	0.019367479 	1.5842418
0.003638191 	-0.043467828 	-0.0048308322 	1.5380259
0.0036582915 	-0.043467828 	-0.0048308322 	1.5380259
0.003678392 	-0.055544141 	0.0061408001 	1.4983164
0.0036984925 	-0.055410851 	0.030405955 	1.493445
0.003718593 	-0.051112519 	0.059970431 	1.5167733
0.0037386935 	-0.059691208 	0.11145826 	1.5458272
0.003758794 	-0.06248431 	0.14007884 	1.5539955
0.0037788945 	-0.06248431 	0.14007884 	1.5539955
0.003798995 	-0.052521139 	0.11201694 	1.5311613
0.0038190955 	-0.045234025 	0.063509893 	1.5072006
0.003839196 	-0.024851454 	0.097317538 	1.4590911
0.0038592965 	-0.028118118 	0.1645499 	1.3573548
0.003879397 	-0.039787244 	0.18934993 	1.2477369
0.0038994975 	-0.03099084 	0.15309436 	1.2032759
0.003919598 	-0.027414542 	-0.02650318 	1.1812995
0.0039396985 	0.0052766485 	0.1703826 	1.0365575
0.003959799 	0.02554201 	0.24804164 	1.2095131
0.0039798995 	0.015397879 	-0.083760857 	0.88633723
0.004 	0.015397879 	-0.083760857 	0.88633723
