0 	0.042892192 	-0.0019233333 	2.0514566
2.0100503e-05 	-0.0021427181 	0.062913509 	2.0178945
4.0201005e-05 	-0.0021427181 	0.062913509 	2.0178945
6.0301508e-05 	-0.043439535 	0.057689325 	2.019913
8.040201e-05 	-0.043439535 	0.057689325 	2.019913
0.00010050251 	-0.043439535 	0.057689325 	2.019913
0.00012060302 	-0.050573109 	0.052835723 	2.0342163
0.00014070352 	-0.050573109 	0.052835723 	2.0342163
0.00016080402 	-0.050573109 	0.052835723 	2.0342163
0.00018090452 	-0.052405387 	0.056931058 	2.033341
0.00020100503 	-0.052405387 	0.056931058 	2.033341
0.00022110553 	-0.052405387 	0.056931058 	2.033341
0.00024120603 	-0.04666859 	0.057540053 	2.0021173
0.00026130653 	-0.04666859 	0.057540053 	2.0021173
0.00028140704 	-0.039155117 	0.044643998 	1.9709714
0.00030150754 	-0.039155117 	0.044643998 	1.9709714
0.00032160804 	-0.039155117 	0.044643998 	1.9709714
0.00034170854 	-0.025252053 	0.039816284 	1.9652084
0.00036180905 	-0.025252053 	0.039816284 	1.9652084
0.00038190955 	-0.025252053 	0.039816284 	1.9652084
0.00040201005 	-0.018420248 	0.048476668 	1.9725009
0.00042211055 	-0.018420248 	0.048476668 	1.9725009
0.00044221106 	-0.018420248 	0.048476668 	1.9725009
0.00046231156 	-0.010493108 	0.051426303 	1.9647044
0.00048241206 	-0.010493108 	0.051426303 	1.9647044
0.00050251256 	-0.022669982 	0.038103994 	1.9744135
0.00052261307 	-0.022669982 	0.038103994 	1.9744135
0.00054271357 	-0.022669982 	0.038103994 	1.9744135
0.00056281407 	-0.027883969 	0.029685434 	2.0376952
0.00058291457 	-0.027883969 	0.029685434 	2.0376952
0.00060301508 	-0.027883969 	0.029685434 	2.0376952
0.00062311558 	-0.033411559 	0.026205187 	2.0729782
0.00064321608 	-0.033411559 	0.026205187 	2.0729782
0.00066331658 	-0.033411559 	0.026205187 	2.0729782
0.00068341709 	-0.0314938 	0.0086457155 	2.0857945
0.00070351759 	-0.0314938 	0.0086457155 	2.0857945
0.00072361809 	-0.028946787 	-0.0032647817 	2.0888153
0.00074371859 	-0.028946787 	-0.0032647817 	2.0888153
0.0007638191 	-0.028946787 	-0.0032647817 	2.0888153
0.0007839196 	-0.014215053 	-0.010021415 	2.0902319
0.0008040201 	-0.014215053 	-0.010021415 	2.0902319
0.0008241206 	-0.014215053 	-0.010021415 	2.0902319
0.00084422111 	-0.01459904 	0.011386002 	2.0297227
0.00086432161 	-0.01459904 	0.011386002 	2.0297227
0.00088442211 	-0.01459904 	0.011386002 	2.0297227
0.00090452261 	-0.024055128 	0.016645369 	1.9855485
0.00092462312 	-0.024055128 	0.016645369 	1.9855485
0.00094472362 	-0.030803213 	0.0034368649 	2.0021708
0.00096482412 	-0.030803213 	0.0034368649 	2.0021708
0.00098492462 	-0.030803213 	0.0034368649 	2.0021708
0.0010050251 	-0.015222927 	-0.016969227 	1.9763731
0.0010251256 	-0.015222927 	-0.016969227 	1.9763731
0.0010452261 	-0.015222927 	-0.016969227 	1.9763731
0.0010653266 	-0.014558253 	0.003857152 	1.951347
0.0010854271 	-0.014558253 	0.003857152 	1.951347
0.0011055276 	-0.014558253 	0.003857152 	1.951347
0.0011256281 	0.0017770722 	0.050605863 	1.9479395
0.0011457286 	0.0017770722 	0.050605863 	1.9479395
0.0011658291 	-0.024491503 	0.051321475 	1.9190902
0.0011859296 	-0.010991649 	0.095458042 	1.9712539
0.0012060302 	-0.00081455703 	0.067836127 	1.9557523
0.0012261307 	-0.00081455703 	0.067836127 	1.9557523
0.0012462312 	-0.01461614 	0.049089703 	1.9444956
0.0012663317 	-0.01461614 	0.049089703 	1.9444956
0.0012864322 	-0.01461614 	0.049089703 	1.9444956
0.0013065327 	-0.020403894 	0.043422042 	1.9494251
0.0013266332 	-0.026292679 	0.072469415 	1.9501064
0.0013467337 	-0.026292679 	0.072469415 	1.9501064
0.0013668342 	-0.012497261 	0.069476418 	1.8854463
0.0013869347 	-0.012497261 	0.069476418 	1.8854463
0.0014070352 	-0.012497261 	0.069476418 	1.8854463
0.0014271357 	-0.0024642278 	0.092847196 	1.8127729
0.0014472362 	-0.0024642278 	0.092847196 	1.8127729
0.0014673367 	-0.0024642278 	0.092847196 	1.8127729
0.0014874372 	-0.0086536325 	0.099626852 	1.8527451
0.0015075377 	-0.0086536325 	0.099626852 	1.8527451
0.0015276382 	-0.013994018 	0.051123862 	1.8345141
0.0015477387 	-0.013994018 	0.051123862 	1.8345141
0.0015678392 	-0.013994018 	0.051123862 	1.8345141
0.0015879397 	-0.025626667 	0.017851177 	1.8488569
0.0016080402 	-0.025626667 	0.017851177 	1.8488569
0.0016281407 	-0.025626667 	0.017851177 	1.8488569
0.0016482412 	-0.043550291 	-0.012024746 	1.8779175
0.0016683417 	-0.043550291 	-0.012024746 	1.8779175
0.0016884422 	-0.033715825 	-0.030764879 	1.8767697
0.0017085427 	-0.033715825 	-0.030764879 	1.8767697
0.0017286432 	-0.033715825 	-0.030764879 	1.8767697
0.0017487437 	-0.023811666 	-0.054620118 	1.9571939
0.0017688442 	-0.023811666 	-0.054620118 	1.9571939
0.0017889447 	-0.023811666 	-0.054620118 	1.9571939
0.0018090452 	0.00015218124 	-0.055110451 	1.9613384
0.0018291457 	0.00015218124 	-0.055110451 	1.9613384
0.0018492462 	0.012390002 	-0.034376053 	1.9002919
0.0018693467 	0.012390002 	-0.034376053 	1.9002919
0.0018894472 	0.012390002 	-0.034376053 	1.9002919
0.0019095477 	0.018623841 	-0.02877297 	1.8508561
0.0019296482 	0.018623841 	-0.02877297 	1.8508561
0.0019497487 	0.0025944189 	-0.041603168 	1.832172
0.0019698492 	0.0025944189 	-0.041603168 	1.832172
0.0019899497 	-0.004357767 	-0.078723796 	1.8661786
0.0020100503 	-0.004357767 	-0.078723796 	1.8661786
0.0020301508 	-0.004357767 	-0.078723796 	1.8661786
0.0020502513 	-0.019005415 	-0.075906275 	1.874142
0.0020703518 	-0.019005415 	-0.075906275 	1.874142
0.0020904523 	-0.037415314 	-0.076518652 	1.8590718
0.0021105528 	-0.037415314 	-0.076518652 	1.8590718
0.0021306533 	-0.037415314 	-0.076518652 	1.8590718
0.0021507538 	-0.045729095 	-0.074063703 	1.8527643
0.0021708543 	-0.045729095 	-0.074063703 	1.8527643
0.0021909548 	-0.058116615 	-0.065100393 	1.844482
0.0022110553 	-0.058116615 	-0.065100393 	1.844482
0.0022311558 	-0.073813758 	-0.028440396 	1.8049634
0.0022512563 	-0.073813758 	-0.028440396 	1.8049634
0.0022713568 	-0.081645615 	0.022350163 	1.7546245
0.0022914573 	-0.081645615 	0.022350163 	1.7546245
0.0023115578 	-0.081645615 	0.022350163 	1.7546245
0.0023316583 	-0.094095579 	-0.0031359366 	1.7531436
0.0023517588 	-0.094095579 	-0.0031359366 	1.7531436
0.0023718593 	-0.098394973 	-0.0038321161 	1.7940184
0.0023919598 	-0.098394973 	-0.0038321161 	1.7940184
0.0024120603 	-0.07602334 	0.065829181 	1.7589535
0.0024321608 	-0.07602334 	0.065829181 	1.7589535
0.0024522613 	-0.085511179 	0.088878651 	1.7335059
0.0024723618 	-0.085511179 	0.088878651 	1.7335059
0.0024924623 	-0.069886063 	0.089097802 	1.703377
0.0025125628 	-0.069886063 	0.089097802 	1.703377
0.0025326633 	-0.074928532 	0.071459758 	1.714583
0.0025527638 	-0.074928532 	0.071459758 	1.714583
0.0025728643 	-0.08620645 	0.026512185 	1.7729335
0.0025929648 	-0.08620645 	0.026512185 	1.7729335
0.0026130653 	-0.08765369 	0.019960262 	1.7702611
0.0026331658 	-0.08765369 	0.019960262 	1.7702611
0.0026532663 	-0.087518551 	0.024887097 	1.7378813
0.0026733668 	-0.087518551 	0.024887097 	1.7378813
0.0026934673 	-0.089103772 	0.0056452603 	1.7578158
0.0027135678 	-0.089103772 	0.0056452603 	1.7578158
0.0027336683 	-0.099692135 	-0.006255527 	1.7992566
0.0027537688 	-0.099692135 	-0.006255527 	1.7992566
0.0027738693 	-0.09795976 	-0.0076054756 	1.8128919
0.0027939698 	-0.09795976 	-0.0076054756 	1.8128919
0.0028140704 	-0.094903966 	-0.016828773 	1.8217589
0.0028341709 	-0.094903966 	-0.016828773 	1.8217589
0.0028542714 	-0.066129677 	0.016002551 	1.7965378
0.0028743719 	-0.039434706 	0.056537574 	1.7864371
0.0028944724 	-0.039434706 	0.056537574 	1.7864371
0.0029145729 	-0.024492433 	0.042504629 	1.801167
0.0029346734 	-0.024492433 	0.042504629 	1.801167
0.0029547739 	-0.018442194 	0.047421263 	1.7645193
0.0029748744 	-0.018442194 	0.047421263 	1.7645193
0.0029949749 	-0.017993235 	0.050753675 	1.7429708
0.0030150754 	-0.014496156 	0.062137677 	1.7885731
0.0030351759 	-0.014496156 	0.062137677 	1.7885731
0.0030552764 	-0.0015743939 	0.058580924 	1.8281385
0.0030753769 	-0.0015743939 	0.058580924 	1.8281385
0.0030954774 	0.014300814 	0.057683375 	1.8170139
0.0031155779 	0.029249586 	0.033622333 	1.779153
0.0031356784 	0.029249586 	0.033622333 	1.779153
0.0031557789 	0.037843854 	0.029265188 	1.7632802
0.0031758794 	0.037843854 	0.029265188 	1.7632802
0.0031959799 	0.042804501 	0.026880797 	1.7745787
0.0032160804 	0.036158948 	0.022532728 	1.7765165
0.0032361809 	0.036158948 	0.022532728 	1.7765165
0.0032562814 	0.024966508 	0.020931784 	1.7576417
0.0032763819 	0.0046145538 	0.038168594 	1.7277716
0.0032964824 	0.0046145538 	0.038168594 	1.7277716
0.0033165829 	-0.0094728275 	0.040627936 	1.7247481
0.0033366834 	-0.01740704 	-0.0044772672 	1.7504418
0.0033567839 	-0.01740704 	-0.0044772672 	1.7504418
0.0033768844 	-0.023056895 	-0.0076566968 	1.7661919
0.0033969849 	-0.014284956 	0.029817492 	1.6947781
0.0034170854 	-0.014284956 	0.029817492 	1.6947781
0.0034371859 	-0.012546757 	-0.0015255931 	1.5763756
0.0034572864 	-0.016505808 	-0.044974128 	1.5666663
0.0034773869 	-0.0047294722 	-0.02971995 	1.5812332
0.0034974874 	-0.0047294722 	-0.02971995 	1.5812332
0.0035175879 	0.0025950387 	0.00088652295 	1.5832676
0.0035376884 	-0.0054974227 	-0.0274972 	1.5780718
0.0035577889 	-0.012882808 	-0.094867768 	1.5597257
0.0035778894 	-0.012882808 	-0.094867768 	1.5597257
0.0035979899 	-0.018205566 	-0.11392008 	1.5344184
0.0036180905 	-0.020519757 	-0.075100904 	1.524519
0.003638191 	-0.033368339 	-0.012055718 	1.5619298
0.0036582915 	-0.033368339 	-0.012055718 	1.5619298
0.003678392 	-0.0527918 	0.052803353 	1.6269801
0.0036984925 	-0.050533718 	0.090592493 	1.7096553
0.003718593 	-0.079182996 	0.071594767 	1.7067219
0.0037386935 	-0.083883228 	0.05568831 	1.6446048
0.003758794 	-0.093331228 	0.053170541 	1.5966657
0.0037788945 	-0.093331228 	0.053170541 	1.5966657
0.003798995 	-0.077560277 	0.16706484 	1.5545422
0.0038190955 	-0.096459626 	0.12486652 	1.5542645
0.003839196 	-0.10290027 	0.023348549 	1.6454263
0.0038592965 	-0.09381542 	-0.090780279 	1.7506804
0.003879397 	-0.11277527 	-0.12130562 	1.7528018
0.0038994975 	-0.059480835 	-0.14326952 	1.798051
0.003919598 	-0.087724548 	-0.20690795 	1.8540933
0.0039396985 	-0.050143687 	-0.047892367 	1.7567617
0.003959799 	-0.038448393 	-0.040297016 	1.3174499
0.0039798995 	0.0021422911 	-0.075980132 	0.40933797
0.004 	0.0021422911 	-0.075980132 	0.40933797
