0 	-0.071853667 	-0.0034605424 	2.0878186
2.0100503e-05 	0.010018111 	-0.0739043 	2.0725434
4.0201005e-05 	0.010018111 	-0.0739043 	2.0725434
6.0301508e-05 	0.04827504 	-0.058864835 	2.0530526
8.040201e-05 	0.04827504 	-0.058864835 	2.0530526
0.00010050251 	0.04827504 	-0.058864835 	2.0530526
0.00012060302 	0.056521482 	-0.046348772 	2.0446677
0.00014070352 	0.056521482 	-0.046348772 	2.0446677
0.00016080402 	0.056521482 	-0.046348772 	2.0446677
0.00018090452 	0.057127375 	-0.037309583 	2.0692784
0.00020100503 	0.057127375 	-0.037309583 	2.0692784
0.00022110553 	0.057127375 	-0.037309583 	2.0692784
0.00024120603 	0.0616803 	-0.026555872 	2.0840248
0.00026130653 	0.0616803 	-0.026555872 	2.0840248
0.00028140704 	0.069540146 	-0.023543217 	2.1005849
0.00030150754 	0.069540146 	-0.023543217 	2.1005849
0.00032160804 	0.069540146 	-0.023543217 	2.1005849
0.00034170854 	0.072225089 	-0.022459839 	2.1004205
0.00036180905 	0.072225089 	-0.022459839 	2.1004205
0.00038190955 	0.072225089 	-0.022459839 	2.1004205
0.00040201005 	0.07925784 	-0.020695206 	2.0851249
0.00042211055 	0.07925784 	-0.020695206 	2.0851249
0.00044221106 	0.07925784 	-0.020695206 	2.0851249
0.00046231156 	0.08236427 	-0.017935569 	2.0871415
0.00048241206 	0.08236427 	-0.017935569 	2.0871415
0.00050251256 	0.084787712 	-0.012564638 	2.1086816
0.00052261307 	0.084787712 	-0.012564638 	2.1086816
0.00054271357 	0.084787712 	-0.012564638 	2.1086816
0.00056281407 	0.082968724 	-0.015130986 	2.0904348
0.00058291457 	0.082968724 	-0.015130986 	2.0904348
0.00060301508 	0.082968724 	-0.015130986 	2.0904348
0.00062311558 	0.069879537 	-0.016041092 	2.0870429
0.00064321608 	0.069879537 	-0.016041092 	2.0870429
0.00066331658 	0.069879537 	-0.016041092 	2.0870429
0.00068341709 	0.058294449 	-0.017914482 	2.0793679
0.00070351759 	0.058294449 	-0.017914482 	2.0793679
0.00072361809 	0.052922413 	-0.016566509 	2.0599682
0.00074371859 	0.052922413 	-0.016566509 	2.0599682
0.0007638191 	0.052922413 	-0.016566509 	2.0599682
0.0007839196 	0.049463964 	-0.02061303 	2.0557169
0.0008040201 	0.049463964 	-0.02061303 	2.0557169
0.0008241206 	0.049463964 	-0.02061303 	2.0557169
0.00084422111 	0.035486159 	-0.021524451 	2.050134
0.00086432161 	0.035486159 	-0.021524451 	2.050134
0.00088442211 	0.035486159 	-0.021524451 	2.050134
0.00090452261 	0.056370905 	-0.01907717 	2.0887322
0.00092462312 	0.056370905 	-0.01907717 	2.0887322
0.00094472362 	0.034976074 	-0.0026735609 	2.060123
0.00096482412 	0.034976074 	-0.0026735609 	2.060123
0.00098492462 	0.034976074 	-0.0026735609 	2.060123
0.0010050251 	0.054845152 	-0.015844058 	2.0449107
0.0010251256 	0.054845152 	-0.015844058 	2.0449107
0.0010452261 	0.054845152 	-0.015844058 	2.0449107
0.0010653266 	0.062082334 	-0.023907682 	2.0474485
0.0010854271 	0.062082334 	-0.023907682 	2.0474485
0.0011055276 	0.062082334 	-0.023907682 	2.0474485
0.0011256281 	0.075621575 	-0.02023733 	2.0218383
0.0011457286 	0.075621575 	-0.02023733 	2.0218383
0.0011658291 	0.075621575 	-0.02023733 	2.0218383
0.0011859296 	0.074484922 	-0.015836744 	1.9960057
0.0012060302 	0.074484922 	-0.015836744 	1.9960057
0.0012261307 	0.074484922 	-0.015836744 	1.9960057
0.0012462312 	0.057401279 	-0.010238646 	2.001648
0.0012663317 	0.057401279 	-0.010238646 	2.001648
0.0012864322 	0.057401279 	-0.010238646 	2.001648
0.0013065327 	0.074501569 	-0.0033731184 	2.0517883
0.0013266332 	0.074501569 	-0.0033731184 	2.0517883
0.0013467337 	0.074501569 	-0.0033731184 	2.0517883
0.0013668342 	0.043537217 	0.0041549497 	2.0347766
0.0013869347 	0.043537217 	0.0041549497 	2.0347766
0.0014070352 	0.043537217 	0.0041549497 	2.0347766
0.0014271357 	0.029125723 	0.022163917 	2.0077419
0.0014472362 	0.029125723 	0.022163917 	2.0077419
0.0014673367 	0.029125723 	0.022163917 	2.0077419
0.0014874372 	0.0053638685 	-0.0054683811 	1.9627862
0.0015075377 	0.0053638685 	-0.0054683811 	1.9627862
0.0015276382 	0.0031901055 	0.0022771273 	1.9093576
0.0015477387 	0.0031901055 	0.0022771273 	1.9093576
0.0015678392 	0.0031901055 	0.0022771273 	1.9093576
0.0015879397 	-0.012866647 	0.0075079544 	1.9025715
0.0016080402 	-0.012866647 	0.0075079544 	1.9025715
0.0016281407 	-0.012866647 	0.0075079544 	1.9025715
0.0016482412 	-0.031987698 	0.018728806 	1.9268752
0.0016683417 	-0.031987698 	0.018728806 	1.9268752
0.0016884422 	-0.028409146 	0.025783428 	1.9409836
0.0017085427 	-0.028409146 	0.025783428 	1.9409836
0.0017286432 	-0.028409146 	0.025783428 	1.9409836
0.0017487437 	-0.0085685888 	0.026257611 	1.9659755
0.0017688442 	-0.0085685888 	0.026257611 	1.9659755
0.0017889447 	-0.0085685888 	0.026257611 	1.9659755
0.0018090452 	0.013333191 	0.03699544 	1.9885185
0.0018291457 	0.013333191 	0.03699544 	1.9885185
0.0018492462 	0.0080987307 	-0.012651289 	1.8697495
0.0018693467 	0.0080987307 	-0.012651289 	1.8697495
0.0018894472 	0.0080987307 	-0.012651289 	1.8697495
0.0019095477 	0.012027198 	-0.004264259 	1.8746336
0.0019296482 	0.012027198 	-0.004264259 	1.8746336
0.0019497487 	0.038237601 	0.012352697 	1.9668833
0.0019698492 	0.038237601 	0.012352697 	1.9668833
0.0019899497 	0.038237601 	0.012352697 	1.9668833
0.0020100503 	0.046720423 	-0.013315387 	1.9500604
0.0020301508 	0.046720423 	-0.013315387 	1.9500604
0.0020502513 	0.060532674 	0.022771117 	1.9248314
0.0020703518 	0.060532674 	0.022771117 	1.9248314
0.0020904523 	0.057403714 	0.025381711 	1.9895041
0.0021105528 	0.057403714 	0.025381711 	1.9895041
0.0021306533 	0.057403714 	0.025381711 	1.9895041
0.0021507538 	0.062746295 	0.01952879 	1.9720188
0.0021708543 	0.062746295 	0.01952879 	1.9720188
0.0021909548 	0.071607901 	0.018879345 	1.9103727
0.0022110553 	0.071607901 	0.018879345 	1.9103727
0.0022311558 	0.073399501 	0.020922925 	1.9115973
0.0022512563 	0.073399501 	0.020922925 	1.9115973
0.0022713568 	0.054100153 	0.038592289 	1.974923
0.0022914573 	0.054100153 	0.038592289 	1.974923
0.0023115578 	0.054100153 	0.038592289 	1.974923
0.0023316583 	0.038204199 	0.025014074 	1.9520358
0.0023517588 	0.038204199 	0.025014074 	1.9520358
0.0023718593 	0.046251556 	-0.0027320482 	1.9056147
0.0023919598 	0.046251556 	-0.0027320482 	1.9056147
0.0024120603 	0.045455915 	-0.038281872 	1.9110804
0.0024321608 	0.045455915 	-0.038281872 	1.9110804
0.0024522613 	0.046323907 	-0.05424765 	1.8880046
0.0024723618 	0.046323907 	-0.05424765 	1.8880046
0.0024924623 	0.046345979 	-0.045506306 	1.8804781
0.0025125628 	0.046345979 	-0.045506306 	1.8804781
0.0025326633 	0.046459288 	-0.054714204 	1.9110372
0.0025527638 	0.046459288 	-0.054714204 	1.9110372
0.0025728643 	0.039860614 	-0.032642208 	1.9321966
0.0025929648 	0.039860614 	-0.032642208 	1.9321966
0.0026130653 	0.049691085 	-0.0066666199 	1.9232658
0.0026331658 	0.049691085 	-0.0066666199 	1.9232658
0.0026532663 	0.047226623 	-0.0047598056 	1.9612442
0.0026733668 	0.047226623 	-0.0047598056 	1.9612442
0.0026934673 	0.053791958 	-0.015353988 	1.9583484
0.0027135678 	0.053791958 	-0.015353988 	1.9583484
0.0027336683 	0.074323299 	-0.0042127788 	1.9716777
0.0027537688 	0.074323299 	-0.0042127788 	1.9716777
0.0027738693 	0.097856792 	0.0031279988 	1.9460713
0.0027939698 	0.097856792 	0.0031279988 	1.9460713
0.0028140704 	0.11127765 	0.018629489 	1.9346923
0.0028341709 	0.11127765 	0.018629489 	1.9346923
0.0028542714 	0.10998334 	0.0090895463 	1.9321074
0.0028743719 	0.12208583 	0.0039679044 	1.8897811
0.0028944724 	0.12208583 	0.0039679044 	1.8897811
0.0029145729 	0.12619741 	0.018761159 	1.8402722
0.0029346734 	0.12619741 	0.018761159 	1.8402722
0.0029547739 	0.11768799 	0.0022031944 	1.8111166
0.0029748744 	0.11768799 	0.0022031944 	1.8111166
0.0029949749 	0.10176513 	-0.032577023 	1.816352
0.0030150754 	0.094276437 	-0.023223425 	1.8545769
0.0030351759 	0.094276437 	-0.023223425 	1.8545769
0.0030552764 	0.097464116 	-0.010348491 	1.8515428
0.0030753769 	0.097464116 	-0.010348491 	1.8515428
0.0030954774 	0.091283301 	0.016936466 	1.830994
0.0031155779 	0.078664814 	0.052778236 	1.8572896
0.0031356784 	0.078664814 	0.052778236 	1.8572896
0.0031557789 	0.065079209 	0.074222769 	1.8880169
0.0031758794 	0.065079209 	0.074222769 	1.8880169
0.0031959799 	0.054300943 	0.058755407 	1.8846259
0.0032160804 	0.053583095 	0.056050768 	1.8737819
0.0032361809 	0.053583095 	0.056050768 	1.8737819
0.0032562814 	0.067624805 	0.053832811 	1.8396141
0.0032763819 	0.081845943 	0.04692959 	1.7967033
0.0032964824 	0.081845943 	0.04692959 	1.7967033
0.0033165829 	0.081267722 	0.04423415 	1.7754325
0.0033366834 	0.089720623 	0.047968078 	1.7572968
0.0033567839 	0.089720623 	0.047968078 	1.7572968
0.0033768844 	0.091349366 	0.049071979 	1.789826
0.0033969849 	0.078295572 	0.04694151 	1.8362263
0.0034170854 	0.078295572 	0.04694151 	1.8362263
0.0034371859 	0.06725958 	0.055629081 	1.8316475
0.0034572864 	0.063873456 	0.025380419 	1.7972266
0.0034773869 	0.044677224 	0.012107914 	1.7583059
0.0034974874 	0.044677224 	0.012107914 	1.7583059
0.0035175879 	0.030304626 	0.020543597 	1.7626015
0.0035376884 	0.025080896 	0.012993794 	1.7352839
0.0035577889 	0.0085992398 	-0.0065639141 	1.719441
0.0035778894 	0.0085992398 	-0.0065639141 	1.719441
0.0035979899 	-0.00596968 	-0.030238231 	1.7632264
0.0036180905 	-0.016436063 	-0.033973363 	1.7973167
0.003638191 	-0.011897414 	-0.031819739 	1.7943713
0.0036582915 	-0.011897414 	-0.031819739 	1.7943713
0.003678392 	0.0068364389 	-0.049389194 	1.7582832
0.0036984925 	0.027517655 	-0.078677758 	1.7096004
0.003718593 	0.036725182 	-0.10290401 	1.6865947
0.0037386935 	0.050907898 	-0.085143795 	1.694206
0.003758794 	0.065588962 	-0.056220681 	1.7641878
0.0037788945 	0.065588962 	-0.056220681 	1.7641878
0.003798995 	0.046476261 	-0.070394196 	1.8064793
0.0038190955 	-0.0025149968 	-0.057892992 	1.8290937
0.003839196 	-0.042922968 	-0.0048382017 	1.8873438
0.0038592965 	-0.030590563 	-0.043801023 	1.8175253
0.003879397 	-0.040427521 	-0.014669503 	1.8086027
0.0038994975 	-0.026586723 	0.024979625 	1.9009561
0.003919598 	-0.013349924 	0.015873118 	1.6673209
0.0039396985 	0.017640617 	-0.2852504 	1.2749393
0.003959799 	0.0045190281 	-0.16249692 	0.88347365
0.0039798995 	0.0051802076 	0.12763232 	0.42564085
0.004 	0.0051802076 	0.12763232 	0.42564085
