0 	0.053843791 	0.0081378034 	2.0983195
2.0100503e-05 	0.0060033048 	-0.045738846 	2.1067904
4.0201005e-05 	0.0060033048 	-0.045738846 	2.1067904
6.0301508e-05 	-0.018317116 	-0.034535658 	2.1316728
8.040201e-05 	-0.018317116 	-0.034535658 	2.1316728
0.00010050251 	-0.018317116 	-0.034535658 	2.1316728
0.00012060302 	-0.02270923 	-0.023911724 	2.1212643
0.00014070352 	-0.02270923 	-0.023911724 	2.1212643
0.00016080402 	-0.02270923 	-0.023911724 	2.1212643
0.00018090452 	-0.022036404 	-0.0052385491 	2.1111388
0.00020100503 	-0.022036404 	-0.0052385491 	2.1111388
0.00022110553 	-0.022036404 	-0.0052385491 	2.1111388
0.00024120603 	-0.01409283 	0.002698972 	2.0864099
0.00026130653 	-0.01409283 	0.002698972 	2.0864099
0.00028140704 	-0.002690572 	-7.7061161e-05 	2.0831471
0.00030150754 	-0.002690572 	-7.7061161e-05 	2.0831471
0.00032160804 	-0.002690572 	-7.7061161e-05 	2.0831471
0.00034170854 	0.010818703 	-0.0033318823 	2.0689392
0.00036180905 	0.010818703 	-0.0033318823 	2.0689392
0.00038190955 	0.010818703 	-0.0033318823 	2.0689392
0.00040201005 	0.014540589 	0.00013198445 	2.0668403
0.00042211055 	0.014540589 	0.00013198445 	2.0668403
0.00044221106 	0.014540589 	0.00013198445 	2.0668403
0.00046231156 	0.013509522 	-0.012377321 	2.0925615
0.00048241206 	0.013509522 	-0.012377321 	2.0925615
0.00050251256 	0.01762983 	-0.017999731 	2.0981026
0.00052261307 	0.01762983 	-0.017999731 	2.0981026
0.00054271357 	0.01762983 	-0.017999731 	2.0981026
0.00056281407 	0.025016949 	-0.0059586641 	2.083062
0.00058291457 	0.025016949 	-0.0059586641 	2.083062
0.00060301508 	0.025016949 	-0.0059586641 	2.083062
0.00062311558 	0.040401974 	-0.010244875 	2.067848
0.00064321608 	0.040401974 	-0.010244875 	2.067848
0.00066331658 	0.040401974 	-0.010244875 	2.067848
0.00068341709 	0.039206316 	-0.0055273951 	2.0870146
0.00070351759 	0.039206316 	-0.0055273951 	2.0870146
0.00072361809 	0.046495473 	-0.0048516704 	2.0844893
0.00074371859 	0.046495473 	-0.0048516704 	2.0844893
0.0007638191 	0.046495473 	-0.0048516704 	2.0844893
0.0007839196 	0.0075553545 	-0.035803508 	2.0917055
0.0008040201 	0.0075553545 	-0.035803508 	2.0917055
0.0008241206 	0.0075553545 	-0.035803508 	2.0917055
0.00084422111 	0.019265059 	-0.021984381 	2.0383022
0.00086432161 	0.019265059 	-0.021984381 	2.0383022
0.00088442211 	0.019265059 	-0.021984381 	2.0383022
0.00090452261 	0.040415786 	0.016094164 	2.0354703
0.00092462312 	0.040415786 	0.016094164 	2.0354703
0.00094472362 	0.038738005 	0.028045114 	2.0549927
0.00096482412 	0.038738005 	0.028045114 	2.0549927
0.00098492462 	0.031685762 	0.025692155 	2.0082258
0.0010050251 	0.03018464 	0.0074606246 	2.0048195
0.0010251256 	0.03018464 	0.0074606246 	2.0048195
0.0010452261 	0.03018464 	0.0074606246 	2.0048195
0.0010653266 	0.018648151 	0.01224021 	2.0522116
0.0010854271 	0.018648151 	0.01224021 	2.0522116
0.0011055276 	-0.00038446025 	0.0034991866 	1.9941205
0.0011256281 	0.020200514 	0.022141815 	2.06722
0.0011457286 	0.020200514 	0.022141815 	2.06722
0.0011658291 	0.024752113 	0.023565224 	2.0133398
0.0011859296 	0.024031507 	0.041196938 	2.0128949
0.0012060302 	0.024031507 	0.041196938 	2.0128949
0.0012261307 	0.024031507 	0.041196938 	2.0128949
0.0012462312 	0.0027469538 	0.03307165 	2.0050573
0.0012663317 	0.0027469538 	0.03307165 	2.0050573
0.0012864322 	0.0027469538 	0.03307165 	2.0050573
0.0013065327 	-0.0050714771 	0.044084104 	1.9528601
0.0013266332 	0.010518541 	0.050759233 	1.9606157
0.0013467337 	0.010518541 	0.050759233 	1.9606157
0.0013668342 	0.03157995 	0.060801057 	2.0009892
0.0013869347 	0.03157995 	0.060801057 	2.0009892
0.0014070352 	0.03157995 	0.060801057 	2.0009892
0.0014271357 	0.011129861 	0.087094039 	2.0584885
0.0014472362 	0.011129861 	0.087094039 	2.0584885
0.0014673367 	0.011129861 	0.087094039 	2.0584885
0.0014874372 	-0.0069314209 	0.066217651 	2.0132698
0.0015075377 	0.071988932 	0.076874454 	1.9726917
0.0015276382 	0.068048162 	0.077273552 	1.9959538
0.0015477387 	-0.050457517 	0.062465695 	1.9701052
0.0015678392 	-0.050457517 	0.062465695 	1.9701052
0.0015879397 	-0.1009239 	0.023596303 	1.9195519
0.0016080402 	-0.1009239 	0.023596303 	1.9195519
0.0016281407 	0.051459691 	0.071957555 	1.9826419
0.0016482412 	0.042440886 	0.05593454 	1.9715695
0.0016683417 	-0.1096589 	0.012674203 	1.9518502
0.0016884422 	-0.10945735 	0.02442752 	1.9857191
0.0017085427 	-0.10945735 	0.02442752 	1.9857191
0.0017286432 	-0.10945735 	0.02442752 	1.9857191
0.0017487437 	-0.10550596 	0.009537588 	1.9524986
0.0017688442 	-0.10550596 	0.009537588 	1.9524986
0.0017889447 	-0.10550596 	0.009537588 	1.9524986
0.0018090452 	-0.10202726 	0.013417806 	1.900123
0.0018291457 	-0.10202726 	0.013417806 	1.900123
0.0018492462 	-0.076049877 	0.031880465 	1.8384645
0.0018693467 	-0.076049877 	0.031880465 	1.8384645
0.0018894472 	-0.076049877 	0.031880465 	1.8384645
0.0019095477 	-0.077175785 	0.042183007 	1.8131242
0.0019296482 	-0.077175785 	0.042183007 	1.8131242
0.0019497487 	-0.074129648 	0.051935721 	1.8163996
0.0019698492 	-0.074129648 	0.051935721 	1.8163996
0.0019899497 	-0.059833746 	0.051238572 	1.8508625
0.0020100503 	-0.059833746 	0.051238572 	1.8508625
0.0020301508 	-0.059833746 	0.051238572 	1.8508625
0.0020502513 	-0.052064703 	0.01167056 	1.9169561
0.0020703518 	-0.052064703 	0.01167056 	1.9169561
0.0020904523 	-0.03654928 	-0.005256234 	1.939578
0.0021105528 	-0.03654928 	-0.005256234 	1.939578
0.0021306533 	-0.03654928 	-0.005256234 	1.939578
0.0021507538 	-0.03587033 	-0.014231004 	1.963787
0.0021708543 	-0.03587033 	-0.014231004 	1.963787
0.0021909548 	-0.020619461 	0.0022166699 	1.969049
0.0022110553 	-0.020619461 	0.0022166699 	1.969049
0.0022311558 	-0.010621869 	0.0028028249 	1.9117594
0.0022512563 	-0.010621869 	0.0028028249 	1.9117594
0.0022713568 	0.010788911 	-0.021982884 	1.9422275
0.0022914573 	0.010788911 	-0.021982884 	1.9422275
0.0023115578 	0.010788911 	-0.021982884 	1.9422275
0.0023316583 	0.010978922 	0.0071319563 	2.0185697
0.0023517588 	0.010978922 	0.0071319563 	2.0185697
0.0023718593 	0.027372763 	-0.037741703 	2.0257265
0.0023919598 	0.027372763 	-0.037741703 	2.0257265
0.0024120603 	0.048863021 	-0.031132964 	2.032395
0.0024321608 	0.048863021 	-0.031132964 	2.032395
0.0024522613 	0.067404233 	-0.021556114 	2.0100536
0.0024723618 	0.067404233 	-0.021556114 	2.0100536
0.0024924623 	0.083228516 	-0.0054489775 	1.9948695
0.0025125628 	0.083228516 	-0.0054489775 	1.9948695
0.0025326633 	0.075500509 	0.0028812694 	2.0115326
0.0025527638 	0.075500509 	0.0028812694 	2.0115326
0.0025728643 	0.073836502 	0.0182919 	2.0091152
0.0025929648 	0.073836502 	0.0182919 	2.0091152
0.0026130653 	0.069071359 	0.041455825 	1.9421468
0.0026331658 	0.069071359 	0.041455825 	1.9421468
0.0026532663 	0.056861555 	0.03138507 	1.8487537
0.0026733668 	0.056861555 	0.03138507 	1.8487537
0.0026934673 	0.051225982 	0.0079897031 	1.7939094
0.0027135678 	0.051225982 	0.0079897031 	1.7939094
0.0027336683 	0.033176789 	0.038508545 	1.8024312
0.0027537688 	0.033176789 	0.038508545 	1.8024312
0.0027738693 	0.022006964 	0.060612356 	1.8434773
0.0027939698 	0.022006964 	0.060612356 	1.8434773
0.0028140704 	0.019090117 	0.047473845 	1.8848501
0.0028341709 	0.019090117 	0.047473845 	1.8848501
0.0028542714 	0.018468746 	0.0051590286 	1.9488038
0.0028743719 	0.024369803 	-0.019349344 	1.9276475
0.0028944724 	0.024369803 	-0.019349344 	1.9276475
0.0029145729 	0.042406895 	-0.017935168 	1.8848901
0.0029346734 	0.042406895 	-0.017935168 	1.8848901
0.0029547739 	0.065276466 	-0.022086522 	1.8910254
0.0029748744 	0.065276466 	-0.022086522 	1.8910254
0.0029949749 	0.072414991 	-0.0031125727 	1.9094682
0.0030150754 	0.070626232 	0.023138548 	1.8943469
0.0030351759 	0.070626232 	0.023138548 	1.8943469
0.0030552764 	0.061460303 	0.06644457 	1.8489737
0.0030753769 	0.061460303 	0.06644457 	1.8489737
0.0030954774 	0.043421792 	0.10258248 	1.8276608
0.0031155779 	0.027954222 	0.062714813 	1.859084
0.0031356784 	0.027954222 	0.062714813 	1.859084
0.0031557789 	0.01135779 	-0.0063624402 	1.8521677
0.0031758794 	0.01135779 	-0.0063624402 	1.8521677
0.0031959799 	-0.0080349826 	-0.041200524 	1.874947
0.0032160804 	-0.017461142 	-0.050425693 	1.8752417
0.0032361809 	-0.017461142 	-0.050425693 	1.8752417
0.0032562814 	-0.02706007 	-0.06517987 	1.8728734
0.0032763819 	-0.031723749 	-0.06745548 	1.8854895
0.0032964824 	-0.031723749 	-0.06745548 	1.8854895
0.0033165829 	-0.042815121 	-0.073547867 	1.8245886
0.0033366834 	-0.050045777 	-0.048745876 	1.7500903
0.0033567839 	-0.050045777 	-0.048745876 	1.7500903
0.0033768844 	-0.072885608 	-0.0065146108 	1.708148
0.0033969849 	-0.072259511 	-0.020238386 	1.6856487
0.0034170854 	-0.072259511 	-0.020238386 	1.6856487
0.0034371859 	-0.073682609 	-0.01120396 	1.7112119
0.0034572864 	-0.065873899 	0.021998246 	1.7348522
0.0034773869 	-0.057914883 	0.021114098 	1.686465
0.0034974874 	-0.057914883 	0.021114098 	1.686465
0.0035175879 	-0.046634485 	0.002741682 	1.6203485
0.0035376884 	-0.044119017 	0.02988389 	1.6041162
0.0035577889 	-0.051979324 	0.072184432 	1.6084913
0.0035778894 	-0.051979324 	0.072184432 	1.6084913
0.0035979899 	-0.065463285 	0.075584699 	1.5981307
0.0036180905 	-0.071753489 	0.040255256 	1.6350935
0.003638191 	-0.070256186 	0.034541359 	1.6447524
0.0036582915 	-0.070256186 	0.034541359 	1.6447524
0.003678392 	-0.071526378 	0.013480147 	1.6491486
0.0036984925 	-0.062690566 	-0.0033222229 	1.6505021
0.003718593 	-0.063599509 	-0.066285214 	1.6379862
0.0037386935 	-0.066868572 	-0.065706454 	1.5828818
0.003758794 	-0.067396347 	-0.012072484 	1.5076269
0.0037788945 	-0.067396347 	-0.012072484 	1.5076269
0.003798995 	-0.077950998 	0.026693368 	1.4685594
0.0038190955 	-0.096123261 	0.096258091 	1.4317515
0.003839196 	-0.10263098 	-0.099611322 	1.4187916
0.0038592965 	-0.13925972 	-0.11584013 	1.4823515
0.003879397 	-0.12637654 	0.04007517 	1.4510622
0.0038994975 	-0.10902749 	0.12512947 	1.240303
0.003919598 	-0.050065276 	-0.085886308 	0.89478996
0.0039396985 	-0.11741276 	-0.15531362 	0.80219821
0.003959799 	-0.039898754 	-0.043512799 	0.80557862
0.0039798995 	-0.017509443 	0.20897931 	0.49317158
0.004 	-0.017509443 	0.20897931 	0.49317158
