0 	0.037058573 	0.017279611 	2.0770569
2.0100503e-05 	-0.0060225579 	0.027459074 	2.0664374
4.0201005e-05 	-0.0060225579 	0.027459074 	2.0664374
6.0301508e-05 	-0.017463525 	0.0031509596 	2.0587132
8.040201e-05 	-0.017463525 	0.0031509596 	2.0587132
0.00010050251 	-0.017463525 	0.0031509596 	2.0587132
0.00012060302 	-0.0083705973 	-0.014831912 	2.0392196
0.00014070352 	-0.0083705973 	-0.014831912 	2.0392196
0.00016080402 	-0.0083705973 	-0.014831912 	2.0392196
0.00018090452 	0.0016135665 	-0.026087621 	2.0303864
0.00020100503 	0.0016135665 	-0.026087621 	2.0303864
0.00022110553 	0.0016135665 	-0.026087621 	2.0303864
0.00024120603 	0.022884655 	-0.022014616 	2.0267092
0.00026130653 	0.022884655 	-0.022014616 	2.0267092
0.00028140704 	0.024050623 	-0.017508279 	2.0433994
0.00030150754 	0.024050623 	-0.017508279 	2.0433994
0.00032160804 	0.024050623 	-0.017508279 	2.0433994
0.00034170854 	0.014935962 	-0.021399308 	2.0604085
0.00036180905 	0.014935962 	-0.021399308 	2.0604085
0.00038190955 	0.014935962 	-0.021399308 	2.0604085
0.00040201005 	0.016208714 	-0.028720181 	2.0665022
0.00042211055 	0.016208714 	-0.028720181 	2.0665022
0.00044221106 	0.016208714 	-0.028720181 	2.0665022
0.00046231156 	0.016181187 	-0.028308523 	2.0688398
0.00048241206 	0.016181187 	-0.028308523 	2.0688398
0.00050251256 	0.013748072 	-0.030247128 	2.0833505
0.00052261307 	0.013748072 	-0.030247128 	2.0833505
0.00054271357 	0.013748072 	-0.030247128 	2.0833505
0.00056281407 	0.0039280624 	-0.025909189 	2.0905536
0.00058291457 	0.0039280624 	-0.025909189 	2.0905536
0.00060301508 	0.0039280624 	-0.025909189 	2.0905536
0.00062311558 	0.0010976452 	-0.01068449 	2.0842507
0.00064321608 	0.0010976452 	-0.01068449 	2.0842507
0.00066331658 	0.0010976452 	-0.01068449 	2.0842507
0.00068341709 	-0.0023706122 	-0.0019126984 	2.0528786
0.00070351759 	-0.0023706122 	-0.0019126984 	2.0528786
0.00072361809 	-0.0047185509 	-0.010435429 	2.0475164
0.00074371859 	-0.0047185509 	-0.010435429 	2.0475164
0.0007638191 	-0.0047185509 	-0.010435429 	2.0475164
0.0007839196 	-0.0060065931 	-0.018341261 	2.0570716
0.0008040201 	-0.0060065931 	-0.018341261 	2.0570716
0.0008241206 	-0.0060065931 	-0.018341261 	2.0570716
0.00084422111 	-0.0095588678 	-0.025529208 	2.0766602
0.00086432161 	-0.0095588678 	-0.025529208 	2.0766602
0.00088442211 	-0.0095588678 	-0.025529208 	2.0766602
0.00090452261 	-0.012600994 	-0.02493958 	2.0596302
0.00092462312 	-0.012600994 	-0.02493958 	2.0596302
0.00094472362 	-0.01953231 	-0.025902292 	2.0387498
0.00096482412 	-0.01953231 	-0.025902292 	2.0387498
0.00098492462 	-0.01953231 	-0.025902292 	2.0387498
0.0010050251 	-0.020307471 	-0.034474202 	2.0381414
0.0010251256 	-0.020307471 	-0.034474202 	2.0381414
0.0010452261 	-0.020307471 	-0.034474202 	2.0381414
0.0010653266 	-0.034714517 	-0.044335976 	2.0378151
0.0010854271 	-0.034714517 	-0.044335976 	2.0378151
0.0011055276 	-0.036167584 	-0.033536845 	2.0209403
0.0011256281 	-0.04209997 	-0.038912939 	1.991661
0.0011457286 	-0.04209997 	-0.038912939 	1.991661
0.0011658291 	-0.041600757 	-0.043405003 	2.0330945
0.0011859296 	-0.024584016 	-0.03436814 	2.034574
0.0012060302 	-0.024584016 	-0.03436814 	2.034574
0.0012261307 	-0.032564007 	-0.036319763 	1.9998741
0.0012462312 	-0.025979362 	-0.01530095 	2.0393361
0.0012663317 	-0.025979362 	-0.01530095 	2.0393361
0.0012864322 	-0.017179475 	-0.0025214366 	2.0564758
0.0013065327 	-0.017963871 	0.013978093 	2.059487
0.0013266332 	-0.017963871 	0.013978093 	2.059487
0.0013467337 	-0.017963871 	0.013978093 	2.059487
0.0013668342 	-0.0061917918 	0.017357582 	2.0429493
0.0013869347 	-0.0061917918 	0.017357582 	2.0429493
0.0014070352 	-0.0061917918 	0.017357582 	2.0429493
0.0014271357 	0.0073433225 	0.030135435 	2.0434201
0.0014472362 	0.0073433225 	0.030135435 	2.0434201
0.0014673367 	0.0073433225 	0.030135435 	2.0434201
0.0014874372 	0.025308053 	0.031929449 	2.0431698
0.0015075377 	0.025308053 	0.031929449 	2.0431698
0.0015276382 	0.0265167 	0.026234177 	2.0631903
0.0015477387 	0.0265167 	0.026234177 	2.0631903
0.0015678392 	0.0265167 	0.026234177 	2.0631903
0.0015879397 	0.022652757 	0.021054057 	2.0295544
0.0016080402 	0.022652757 	0.021054057 	2.0295544
0.0016281407 	0.022652757 	0.021054057 	2.0295544
0.0016482412 	0.024060433 	0.023375833 	2.0319485
0.0016683417 	0.024060433 	0.023375833 	2.0319485
0.0016884422 	0.016063187 	0.010184745 	2.0683835
0.0017085427 	0.016063187 	0.010184745 	2.0683835
0.0017286432 	0.016063187 	0.010184745 	2.0683835
0.0017487437 	0.013323233 	0.010738176 	2.1016036
0.0017688442 	0.013323233 	0.010738176 	2.1016036
0.0017889447 	0.013323233 	0.010738176 	2.1016036
0.0018090452 	0.0090802312 	0.030640246 	2.0740437
0.0018291457 	0.0090802312 	0.030640246 	2.0740437
0.0018492462 	0.0081184205 	0.066360745 	2.0029647
0.0018693467 	0.0081184205 	0.066360745 	2.0029647
0.0018894472 	0.0081184205 	0.066360745 	2.0029647
0.0019095477 	-0.0066849634 	0.023506215 	1.967341
0.0019296482 	-0.0066849634 	0.023506215 	1.967341
0.0019497487 	-0.036404967 	-0.050300283 	1.8947433
0.0019698492 	-0.036404967 	-0.050300283 	1.8947433
0.0019899497 	-0.079582891 	-0.077598803 	1.8489864
0.0020100503 	-0.079582891 	-0.077598803 	1.8489864
0.0020301508 	-0.079582891 	-0.077598803 	1.8489864
0.0020502513 	-0.098979552 	-0.068398871 	1.886275
0.0020703518 	-0.098979552 	-0.068398871 	1.886275
0.0020904523 	-0.079204883 	-0.085885861 	1.9187381
0.0021105528 	-0.079204883 	-0.085885861 	1.9187381
0.0021306533 	-0.079204883 	-0.085885861 	1.9187381
0.0021507538 	-0.076966218 	-0.087257 	1.8858391
0.0021708543 	-0.076966218 	-0.087257 	1.8858391
0.0021909548 	-0.059005204 	-0.076081631 	1.8982191
0.0022110553 	-0.059005204 	-0.076081631 	1.8982191
0.0022311558 	-0.051198189 	-0.051186264 	1.8790674
0.0022512563 	-0.051198189 	-0.051186264 	1.8790674
0.0022713568 	-0.053482082 	-0.031550694 	1.9171714
0.0022914573 	-0.053482082 	-0.031550694 	1.9171714
0.0023115578 	-0.053482082 	-0.031550694 	1.9171714
0.0023316583 	-0.027154474 	-0.028611284 	1.924307
0.0023517588 	-0.027154474 	-0.028611284 	1.924307
0.0023718593 	-0.020489934 	-0.022991397 	1.8883312
0.0023919598 	-0.020489934 	-0.022991397 	1.8883312
0.0024120603 	0.005617194 	-0.01970914 	1.8922578
0.0024321608 	0.005617194 	-0.01970914 	1.8922578
0.0024522613 	0.0053080632 	-0.022176819 	1.881756
0.0024723618 	0.0053080632 	-0.022176819 	1.881756
0.0024924623 	0.0082100989 	-0.046788925 	1.861708
0.0025125628 	0.0082100989 	-0.046788925 	1.861708
0.0025326633 	7.2340419e-05 	-0.064523712 	1.8762448
0.0025527638 	7.2340419e-05 	-0.064523712 	1.8762448
0.0025728643 	-0.003077933 	-0.040505641 	1.9065188
0.0025929648 	-0.003077933 	-0.040505641 	1.9065188
0.0026130653 	0.0014641641 	-0.022126219 	1.8725937
0.0026331658 	0.0014641641 	-0.022126219 	1.8725937
0.0026532663 	0.008578146 	-0.042521541 	1.8057556
0.0026733668 	0.008578146 	-0.042521541 	1.8057556
0.0026934673 	0.0040817674 	-0.043017166 	1.7869615
0.0027135678 	0.0040817674 	-0.043017166 	1.7869615
0.0027336683 	0.0029331636 	-0.020765692 	1.7735217
0.0027537688 	0.0029331636 	-0.020765692 	1.7735217
0.0027738693 	-0.0090589423 	0.00048264127 	1.8076512
0.0027939698 	-0.0090589423 	0.00048264127 	1.8076512
0.0028140704 	-0.030084057 	0.023009826 	1.8324128
0.0028341709 	-0.030084057 	0.023009826 	1.8324128
0.0028542714 	-0.042206091 	-0.0065690956 	1.7881043
0.0028743719 	-0.045728538 	-0.034709656 	1.8040242
0.0028944724 	-0.045728538 	-0.034709656 	1.8040242
0.0029145729 	-0.063953663 	-0.039874427 	1.8074184
0.0029346734 	-0.063953663 	-0.039874427 	1.8074184
0.0029547739 	-0.063787113 	-0.1001478 	1.8071089
0.0029748744 	-0.063787113 	-0.1001478 	1.8071089
0.0029949749 	-0.069535097 	-0.15324672 	1.773045
0.0030150754 	-0.073909277 	-0.13498212 	1.7760122
0.0030351759 	-0.073909277 	-0.13498212 	1.7760122
0.0030552764 	-0.079678646 	-0.066519056 	1.8539222
0.0030753769 	-0.079678646 	-0.066519056 	1.8539222
0.0030954774 	-0.099857767 	-0.040421788 	1.8718056
0.0031155779 	-0.096667813 	-0.022609673 	1.8290147
0.0031356784 	-0.096667813 	-0.022609673 	1.8290147
0.0031557789 	-0.083108932 	-0.01986579 	1.8029508
0.0031758794 	-0.083108932 	-0.01986579 	1.8029508
0.0031959799 	-0.070103237 	-0.022762313 	1.8074306
0.0032160804 	-0.051798326 	-0.065337623 	1.8256356
0.0032361809 	-0.051798326 	-0.065337623 	1.8256356
0.0032562814 	-0.017566652 	-0.019811129 	1.7824266
0.0032763819 	-0.01508949 	0.063625958 	1.7796718
0.0032964824 	-0.01508949 	0.063625958 	1.7796718
0.0033165829 	-0.020877163 	0.057150678 	1.8103496
0.0033366834 	-0.0068506774 	0.0025378813 	1.8407
0.0033567839 	-0.0068506774 	0.0025378813 	1.8407
0.0033768844 	-0.011584858 	-0.020467385 	1.8852753
0.0033969849 	-0.0010407801 	-0.014193335 	1.8978857
0.0034170854 	-0.0010407801 	-0.014193335 	1.8978857
0.0034371859 	0.016684821 	-0.058202926 	1.8778784
0.0034572864 	0.037529132 	-0.089437678 	1.832043
0.0034773869 	0.047887335 	-0.073240896 	1.8032201
0.0034974874 	0.047887335 	-0.073240896 	1.8032201
0.0035175879 	0.054539042 	-0.052849506 	1.8064216
0.0035376884 	0.064458834 	-0.064793333 	1.7645703
0.0035577889 	0.077417045 	-0.045544241 	1.7195499
0.0035778894 	0.077417045 	-0.045544241 	1.7195499
0.0035979899 	0.083597098 	-0.024242031 	1.7230373
0.0036180905 	0.084017531 	-0.0012548524 	1.6950472
0.003638191 	0.086889731 	0.031180308 	1.702843
0.0036582915 	0.086889731 	0.031180308 	1.702843
0.003678392 	0.093592718 	0.06104102 	1.7593008
0.0036984925 	0.10525748 	0.098439717 	1.8046483
0.003718593 	0.11360257 	0.084370694 	1.8703174
0.0037386935 	0.080783387 	0.035327945 	1.9358742
0.003758794 	0.056321166 	-0.05757503 	1.8555569
0.0037788945 	0.056321166 	-0.05757503 	1.8555569
0.003798995 	0.058846037 	-0.10967541 	1.6804123
0.0038190955 	0.054166937 	-0.15614311 	1.5852884
0.003839196 	0.076219602 	-0.080140952 	1.4577481
0.0038592965 	0.099001934 	-0.090974872 	1.4558129
0.003879397 	0.074488055 	0.012875029 	1.3544682
0.0038994975 	0.10066912 	-0.023045219 	1.3856982
0.003919598 	0.072311415 	0.1386934 	1.2892429
0.0039396985 	0.061259142 	0.25203492 	1.5143928
0.003959799 	-0.0019645602 	0.15195265 	1.3627545
0.0039798995 	0.051103443 	-0.026420862 	0.51917251
0.004 	0.051103443 	-0.026420862 	0.51917251
