0 	0.017650319 	-0.011543892 	2.0871969
2.0100503e-05 	-0.015135008 	-0.013355058 	2.0775113
4.0201005e-05 	-0.015135008 	-0.013355058 	2.0775113
6.0301508e-05 	-0.015829562 	-0.0026118365 	2.0745075
8.040201e-05 	-0.015829562 	-0.0026118365 	2.0745075
0.00010050251 	-0.015829562 	-0.0026118365 	2.0745075
0.00012060302 	-0.018781901 	0.0084473499 	2.0541152
0.00014070352 	-0.018781901 	0.0084473499 	2.0541152
0.00016080402 	-0.018781901 	0.0084473499 	2.0541152
0.00018090452 	-0.014098471 	0.014134655 	2.0483887
0.00020100503 	-0.014098471 	0.014134655 	2.0483887
0.00022110553 	-0.014098471 	0.014134655 	2.0483887
0.00024120603 	-0.0080488438 	0.02390878 	2.0374138
0.00026130653 	-0.0080488438 	0.02390878 	2.0374138
0.00028140704 	0.00258144 	0.016570494 	2.0594622
0.00030150754 	0.00258144 	0.016570494 	2.0594622
0.00032160804 	0.00258144 	0.016570494 	2.0594622
0.00034170854 	0.012763354 	0.01031785 	2.0592021
0.00036180905 	0.012763354 	0.01031785 	2.0592021
0.00038190955 	0.012763354 	0.01031785 	2.0592021
0.00040201005 	0.016471782 	0.0088312909 	2.0604759
0.00042211055 	0.016471782 	0.0088312909 	2.0604759
0.00044221106 	0.016471782 	0.0088312909 	2.0604759
0.00046231156 	0.019172728 	0.012452679 	2.0857377
0.00048241206 	0.019172728 	0.012452679 	2.0857377
0.00050251256 	0.024991008 	0.015986174 	2.0983172
0.00052261307 	0.024991008 	0.015986174 	2.0983172
0.00054271357 	0.024991008 	0.015986174 	2.0983172
0.00056281407 	0.029154476 	0.017022945 	2.099824
0.00058291457 	0.029154476 	0.017022945 	2.099824
0.00060301508 	0.029154476 	0.017022945 	2.099824
0.00062311558 	0.030535968 	0.019970861 	2.1135975
0.00064321608 	0.030535968 	0.019970861 	2.1135975
0.00066331658 	0.030535968 	0.019970861 	2.1135975
0.00068341709 	0.035477354 	0.013972006 	2.1212526
0.00070351759 	0.035477354 	0.013972006 	2.1212526
0.00072361809 	0.037397915 	0.019447824 	2.1226231
0.00074371859 	0.037397915 	0.019447824 	2.1226231
0.0007638191 	0.037397915 	0.019447824 	2.1226231
0.0007839196 	0.040509217 	0.031544352 	2.1058872
0.0008040201 	0.040509217 	0.031544352 	2.1058872
0.0008241206 	0.040509217 	0.031544352 	2.1058872
0.00084422111 	0.044700644 	0.03111564 	2.0928421
0.00086432161 	0.044700644 	0.03111564 	2.0928421
0.00088442211 	0.044700644 	0.03111564 	2.0928421
0.00090452261 	0.053935222 	0.018752918 	2.0937975
0.00092462312 	0.053935222 	0.018752918 	2.0937975
0.00094472362 	0.056894648 	0.016773304 	2.0917314
0.00096482412 	0.056894648 	0.016773304 	2.0917314
0.00098492462 	0.056894648 	0.016773304 	2.0917314
0.0010050251 	0.064202002 	-0.0016282327 	2.0984745
0.0010251256 	0.064202002 	-0.0016282327 	2.0984745
0.0010452261 	0.064202002 	-0.0016282327 	2.0984745
0.0010653266 	0.066438131 	-0.012625062 	2.0824669
0.0010854271 	0.066438131 	-0.012625062 	2.0824669
0.0011055276 	0.066438131 	-0.012625062 	2.0824669
0.0011256281 	0.059121402 	-0.0212306 	2.0695316
0.0011457286 	0.059121402 	-0.0212306 	2.0695316
0.0011658291 	0.059121402 	-0.0212306 	2.0695316
0.0011859296 	0.058312862 	-0.036697134 	2.0708071
0.0012060302 	0.058312862 	-0.036697134 	2.0708071
0.0012261307 	0.058312862 	-0.036697134 	2.0708071
0.0012462312 	0.052048895 	-0.012567159 	2.0490627
0.0012663317 	0.052048895 	-0.012567159 	2.0490627
0.0012864322 	0.052048895 	-0.012567159 	2.0490627
0.0013065327 	0.044157135 	-0.017068665 	1.9905741
0.0013266332 	0.044157135 	-0.017068665 	1.9905741
0.0013467337 	0.044157135 	-0.017068665 	1.9905741
0.0013668342 	0.047569595 	-0.018881313 	2.0057437
0.0013869347 	0.039755902 	-0.020177684 	2.0237744
0.0014070352 	0.039755902 	-0.020177684 	2.0237744
0.0014271357 	0.036005407 	0.00031928488 	2.0407725
0.0014472362 	0.032272048 	-0.019381902 	1.9960207
0.0014673367 	0.032272048 	-0.019381902 	1.9960207
0.0014874372 	0.0031719431 	-0.019331177 	2.0443665
0.0015075377 	0.0031719431 	-0.019331177 	2.0443665
0.0015276382 	0.020178815 	-0.0094132686 	2.0214527
0.0015477387 	0.020178815 	-0.0094132686 	2.0214527
0.0015678392 	0.020178815 	-0.0094132686 	2.0214527
0.0015879397 	0.014021552 	0.018988432 	1.9920776
0.0016080402 	0.014021552 	0.018988432 	1.9920776
0.0016281407 	0.014021552 	0.018988432 	1.9920776
0.0016482412 	0.030050905 	0.018406672 	1.9847114
0.0016683417 	0.0044730044 	0.024613046 	1.9306983
0.0016884422 	-0.030585653 	-0.0026320259 	1.9495242
0.0017085427 	-0.030585653 	-0.0026320259 	1.9495242
0.0017286432 	-0.030585653 	-0.0026320259 	1.9495242
0.0017487437 	-0.015983282 	-0.029986638 	1.9217024
0.0017688442 	-0.015983282 	-0.029986638 	1.9217024
0.0017889447 	-0.015983282 	-0.029986638 	1.9217024
0.0018090452 	-0.021818596 	-0.039833345 	1.9315964
0.0018291457 	-0.021818596 	-0.039833345 	1.9315964
0.0018492462 	-0.010774978 	-0.033818814 	1.9365253
0.0018693467 	-0.010774978 	-0.033818814 	1.9365253
0.0018894472 	-0.010774978 	-0.033818814 	1.9365253
0.0019095477 	-0.020717545 	-0.019106246 	1.9293958
0.0019296482 	-0.020717545 	-0.019106246 	1.9293958
0.0019497487 	-0.041827196 	-0.017869427 	1.9755822
0.0019698492 	-0.041827196 	-0.017869427 	1.9755822
0.0019899497 	-0.037624023 	-0.012980266 	1.9139101
0.0020100503 	-0.037624023 	-0.012980266 	1.9139101
0.0020301508 	-0.037624023 	-0.012980266 	1.9139101
0.0020502513 	-0.040441515 	0.0015429535 	1.8218258
0.0020703518 	-0.040441515 	0.0015429535 	1.8218258
0.0020904523 	-0.039277248 	-0.0063323665 	1.828838
0.0021105528 	-0.039277248 	-0.0063323665 	1.828838
0.0021306533 	-0.039277248 	-0.0063323665 	1.828838
0.0021507538 	-0.037572609 	0.021925795 	1.8826295
0.0021708543 	-0.037572609 	0.021925795 	1.8826295
0.0021909548 	-0.027474637 	0.049900877 	1.9278115
0.0022110553 	-0.027474637 	0.049900877 	1.9278115
0.0022311558 	-0.028275922 	0.03341839 	1.9033608
0.0022512563 	-0.028275922 	0.03341839 	1.9033608
0.0022713568 	-0.011677286 	0.023837044 	1.88105
0.0022914573 	-0.011677286 	0.023837044 	1.88105
0.0023115578 	-0.011677286 	0.023837044 	1.88105
0.0023316583 	-0.0073539795 	0.029283783 	1.8712541
0.0023517588 	-0.0073539795 	0.029283783 	1.8712541
0.0023718593 	-0.002690641 	0.015497215 	1.8872379
0.0023919598 	-0.002690641 	0.015497215 	1.8872379
0.0024120603 	0.00083398123 	0.036473399 	1.8669364
0.0024321608 	0.00083398123 	0.036473399 	1.8669364
0.0024522613 	-0.0040000095 	0.052448915 	1.8518988
0.0024723618 	-0.0040000095 	0.052448915 	1.8518988
0.0024924623 	-0.035985085 	0.032404594 	1.8529711
0.0025125628 	-0.035985085 	0.032404594 	1.8529711
0.0025326633 	-0.07496175 	0.020001087 	1.8885523
0.0025527638 	-0.07496175 	0.020001087 	1.8885523
0.0025728643 	-0.078536053 	0.045042008 	1.8517207
0.0025929648 	-0.078536053 	0.045042008 	1.8517207
0.0026130653 	-0.060503947 	0.027248852 	1.8429716
0.0026331658 	-0.060503947 	0.027248852 	1.8429716
0.0026532663 	-0.050514708 	0.018678501 	1.8321105
0.0026733668 	-0.050514708 	0.018678501 	1.8321105
0.0026934673 	-0.035248684 	0.030824737 	1.8085115
0.0027135678 	-0.035248684 	0.030824737 	1.8085115
0.0027336683 	-0.023651044 	0.00091692224 	1.7872382
0.0027537688 	-0.023651044 	0.00091692224 	1.7872382
0.0027738693 	-0.025006162 	0.011470606 	1.7678765
0.0027939698 	-0.025006162 	0.011470606 	1.7678765
0.0028140704 	-0.032172763 	0.034461417 	1.7541404
0.0028341709 	-0.032172763 	0.034461417 	1.7541404
0.0028542714 	-0.024801781 	0.019390785 	1.773339
0.0028743719 	-0.032945313 	0.0087251505 	1.7950655
0.0028944724 	-0.032945313 	0.0087251505 	1.7950655
0.0029145729 	-0.038068683 	-0.022776145 	1.8124886
0.0029346734 	-0.038068683 	-0.022776145 	1.8124886
0.0029547739 	-0.04450215 	-0.027778757 	1.8003985
0.0029748744 	-0.04450215 	-0.027778757 	1.8003985
0.0029949749 	-0.049490776 	0.0083156676 	1.7694132
0.0030150754 	-0.051204389 	-0.0003873979 	1.75395
0.0030351759 	-0.051204389 	-0.0003873979 	1.75395
0.0030552764 	-0.058371482 	0.018913135 	1.7193728
0.0030753769 	-0.058371482 	0.018913135 	1.7193728
0.0030954774 	-0.058672965 	0.076815382 	1.6708372
0.0031155779 	-0.056489659 	0.09684126 	1.6532206
0.0031356784 	-0.056489659 	0.09684126 	1.6532206
0.0031557789 	-0.064304999 	0.080208618 	1.6676736
0.0031758794 	-0.064304999 	0.080208618 	1.6676736
0.0031959799 	-0.06812105 	0.027387947 	1.6947303
0.0032160804 	-0.07516962 	-0.0040886583 	1.7263187
0.0032361809 	-0.07516962 	-0.0040886583 	1.7263187
0.0032562814 	-0.08129644 	-0.028477289 	1.7458922
0.0032763819 	-0.074626153 	-0.057427943 	1.7194442
0.0032964824 	-0.074626153 	-0.057427943 	1.7194442
0.0033165829 	-0.06831355 	-0.069771104 	1.7044399
0.0033366834 	-0.057077535 	-0.07031787 	1.7051542
0.0033567839 	-0.057077535 	-0.07031787 	1.7051542
0.0033768844 	-0.0491915 	-0.040035887 	1.7124968
0.0033969849 	-0.050232214 	-0.0020676783 	1.7067007
0.0034170854 	-0.050232214 	-0.0020676783 	1.7067007
0.0034371859 	-0.047190301 	0.027299791 	1.6724181
0.0034572864 	-0.041947868 	0.036251309 	1.6406159
0.0034773869 	-0.043100454 	-6.9997646e-05 	1.6627611
0.0034974874 	-0.043100454 	-6.9997646e-05 	1.6627611
0.0035175879 	-0.050278839 	-0.060228089 	1.6823258
0.0035376884 	-0.057731752 	-0.071021347 	1.6975754
0.0035577889 	-0.056000778 	-0.10043658 	1.6938441
0.0035778894 	-0.056000778 	-0.10043658 	1.6938441
0.0035979899 	-0.039955341 	-0.14921815 	1.7346302
0.0036180905 	-0.033680979 	-0.18912002 	1.8158272
0.003638191 	-0.02801083 	-0.13002657 	1.7965179
0.0036582915 	-0.02801083 	-0.13002657 	1.7965179
0.003678392 	-0.022302797 	-0.055419407 	1.7624161
0.0036984925 	-0.015114905 	-0.0069390813 	1.7263001
0.003718593 	-0.0016968793 	-0.0028172542 	1.6681852
0.0037386935 	0.0075399448 	-0.0022698143 	1.6989063
0.003758794 	-0.00063061788 	0.054098558 	1.7746732
0.0037788945 	-0.00063061788 	0.054098558 	1.7746732
0.003798995 	-0.02966057 	0.023146391 	1.7586562
0.0038190955 	-0.060108373 	0.013786663 	1.7406652
0.003839196 	-0.051688672 	0.052843927 	1.7253381
0.0038592965 	-0.066488326 	0.21152041 	1.6945024
0.003879397 	-0.028842266 	0.17642368 	1.5375793
0.0038994975 	-0.024481136 	0.098854485 	1.4418712
0.003919598 	-0.0069515247 	0.14524185 	1.3732496
0.0039396985 	0.078706269 	0.12493046 	1.4523947
0.003959799 	0.0024585681 	0.35935444 	1.270505
0.0039798995 	0.085381341 	-0.16722832 	0.75746731
0.004 	0.085381341 	-0.16722832 	0.75746731
