0 	-0.021774452 	-0.022132867 	2.0969928
2.0100503e-05 	0.024699727 	-0.016384625 	2.088454
4.0201005e-05 	0.024699727 	-0.016384625 	2.088454
6.0301508e-05 	0.017865465 	-0.00043700119 	2.0927829
8.040201e-05 	0.017865465 	-0.00043700119 	2.0927829
0.00010050251 	0.017865465 	-0.00043700119 	2.0927829
0.00012060302 	0.010312832 	-0.016187673 	2.0789799
0.00014070352 	0.010312832 	-0.016187673 	2.0789799
0.00016080402 	0.010312832 	-0.016187673 	2.0789799
0.00018090452 	-0.0005802249 	-0.019636522 	2.0441124
0.00020100503 	-0.0005802249 	-0.019636522 	2.0441124
0.00022110553 	-0.0005802249 	-0.019636522 	2.0441124
0.00024120603 	-0.011802184 	-0.0080783862 	2.0188667
0.00026130653 	-0.011802184 	-0.0080783862 	2.0188667
0.00028140704 	-0.017559124 	-0.0090039951 	2.0010004
0.00030150754 	-0.017559124 	-0.0090039951 	2.0010004
0.00032160804 	-0.017559124 	-0.0090039951 	2.0010004
0.00034170854 	-0.021044281 	-0.026098677 	2.0159526
0.00036180905 	-0.021044281 	-0.026098677 	2.0159526
0.00038190955 	-0.021044281 	-0.026098677 	2.0159526
0.00040201005 	-0.023427127 	-0.032228035 	2.0361748
0.00042211055 	-0.023427127 	-0.032228035 	2.0361748
0.00044221106 	-0.023427127 	-0.032228035 	2.0361748
0.00046231156 	-0.022802945 	-0.02772406 	2.0351093
0.00048241206 	-0.022802945 	-0.02772406 	2.0351093
0.00050251256 	-0.019673523 	-0.0067732814 	2.0374056
0.00052261307 	-0.019673523 	-0.0067732814 	2.0374056
0.00054271357 	-0.019673523 	-0.0067732814 	2.0374056
0.00056281407 	-0.027692146 	0.0029771664 	2.0577627
0.00058291457 	-0.027692146 	0.0029771664 	2.0577627
0.00060301508 	-0.027692146 	0.0029771664 	2.0577627
0.00062311558 	-0.026929836 	0.0030962607 	2.0514439
0.00064321608 	-0.026929836 	0.0030962607 	2.0514439
0.00066331658 	-0.026929836 	0.0030962607 	2.0514439
0.00068341709 	-0.02289031 	0.019560451 	2.0233873
0.00070351759 	-0.02289031 	0.019560451 	2.0233873
0.00072361809 	-0.015028275 	0.055976176 	1.9920602
0.00074371859 	-0.015028275 	0.055976176 	1.9920602
0.0007638191 	-0.015028275 	0.055976176 	1.9920602
0.0007839196 	-0.011651167 	0.049287156 	1.9940069
0.0008040201 	-0.011651167 	0.049287156 	1.9940069
0.0008241206 	-0.011651167 	0.049287156 	1.9940069
0.00084422111 	-0.0081323553 	0.015247281 	1.9921252
0.00086432161 	-0.0081323553 	0.015247281 	1.9921252
0.00088442211 	-0.0081323553 	0.015247281 	1.9921252
0.00090452261 	-0.0059578243 	0.0076372462 	1.9840292
0.00092462312 	-0.0059578243 	0.0076372462 	1.9840292
0.00094472362 	-0.0072644526 	0.030605589 	1.9928402
0.00096482412 	-0.0072644526 	0.030605589 	1.9928402
0.00098492462 	-0.0072644526 	0.030605589 	1.9928402
0.0010050251 	-0.041880296 	0.01020068 	2.0107013
0.0010251256 	-0.041880296 	0.01020068 	2.0107013
0.0010452261 	-0.012042203 	0.03222979 	2.0259504
0.0010653266 	-0.022153705 	0.023728617 	2.0058324
0.0010854271 	-0.022153705 	0.023728617 	2.0058324
0.0011055276 	-0.042820022 	0.0033413019 	2.0066836
0.0011256281 	-0.060984517 	0.027272816 	1.9254582
0.0011457286 	-0.060984517 	0.027272816 	1.9254582
0.0011658291 	-0.060984517 	0.027272816 	1.9254582
0.0011859296 	-0.055659655 	0.035942708 	1.8921765
0.0012060302 	-0.055659655 	0.035942708 	1.8921765
0.0012261307 	-0.055659655 	0.035942708 	1.8921765
0.0012462312 	-0.047203868 	0.030386772 	1.9280894
0.0012663317 	-0.047203868 	0.030386772 	1.9280894
0.0012864322 	-0.047203868 	0.030386772 	1.9280894
0.0013065327 	-0.028334703 	0.0015214285 	1.9561206
0.0013266332 	-0.028334703 	0.0015214285 	1.9561206
0.0013467337 	-0.028334703 	0.0015214285 	1.9561206
0.0013668342 	-0.011384631 	0.016945534 	1.9765313
0.0013869347 	-0.011384631 	0.016945534 	1.9765313
0.0014070352 	-0.011384631 	0.016945534 	1.9765313
0.0014271357 	-0.011707922 	0.025622124 	1.9397566
0.0014472362 	-0.011707922 	0.025622124 	1.9397566
0.0014673367 	-0.011707922 	0.025622124 	1.9397566
0.0014874372 	-0.014845129 	-0.0077571866 	1.9512326
0.0015075377 	-0.014845129 	-0.0077571866 	1.9512326
0.0015276382 	-0.013957622 	-0.010204442 	1.9617252
0.0015477387 	-0.013957622 	-0.010204442 	1.9617252
0.0015678392 	-0.013957622 	-0.010204442 	1.9617252
0.0015879397 	-0.0059770124 	0.0084303663 	2.0242167
0.0016080402 	-0.0059770124 	0.0084303663 	2.0242167
0.0016281407 	-0.0059770124 	0.0084303663 	2.0242167
0.0016482412 	0.0097283712 	0.0083353143 	2.0549155
0.0016683417 	0.0097283712 	0.0083353143 	2.0549155
0.0016884422 	0.016261924 	0.0046666631 	2.067223
0.0017085427 	0.016261924 	0.0046666631 	2.067223
0.0017286432 	0.016261924 	0.0046666631 	2.067223
0.0017487437 	0.034494992 	-0.00014185323 	2.0672327
0.0017688442 	0.034494992 	-0.00014185323 	2.0672327
0.0017889447 	0.034494992 	-0.00014185323 	2.0672327
0.0018090452 	0.040246505 	-0.017430457 	2.0271637
0.0018291457 	0.040246505 	-0.017430457 	2.0271637
0.0018492462 	0.031231945 	-0.028783859 	1.9505588
0.0018693467 	0.031231945 	-0.028783859 	1.9505588
0.0018894472 	0.031231945 	-0.028783859 	1.9505588
0.0019095477 	0.019454381 	-0.018627912 	1.9567498
0.0019296482 	0.019454381 	-0.018627912 	1.9567498
0.0019497487 	0.02084507 	0.0010558294 	2.0449723
0.0019698492 	0.02084507 	0.0010558294 	2.0449723
0.0019899497 	0.02084507 	0.0010558294 	2.0449723
0.0020100503 	0.035051772 	0.0013527827 	2.0221071
0.0020301508 	0.035051772 	0.0013527827 	2.0221071
0.0020502513 	0.039022675 	-0.0025058935 	1.9858693
0.0020703518 	0.039022675 	-0.0025058935 	1.9858693
0.0020904523 	0.031925077 	-0.015953727 	1.9510112
0.0021105528 	0.031925077 	-0.015953727 	1.9510112
0.0021306533 	0.031925077 	-0.015953727 	1.9510112
0.0021507538 	0.0051533992 	-0.0198128 	1.9653067
0.0021708543 	0.0051533992 	-0.0198128 	1.9653067
0.0021909548 	-0.0088586065 	-0.017341499 	1.9755926
0.0022110553 	-0.0088586065 	-0.017341499 	1.9755926
0.0022311558 	-0.016090423 	-0.038774129 	1.9583893
0.0022512563 	-0.016090423 	-0.038774129 	1.9583893
0.0022713568 	-0.019364934 	-0.041276527 	1.9639932
0.0022914573 	-0.019364934 	-0.041276527 	1.9639932
0.0023115578 	-0.019364934 	-0.041276527 	1.9639932
0.0023316583 	-0.015401775 	-0.037258839 	1.9154736
0.0023517588 	-0.015401775 	-0.037258839 	1.9154736
0.0023718593 	-0.0007942138 	-0.023098997 	1.8724065
0.0023919598 	-0.0007942138 	-0.023098997 	1.8724065
0.0024120603 	0.0050955619 	-0.0051090605 	1.8655536
0.0024321608 	0.0050955619 	-0.0051090605 	1.8655536
0.0024522613 	0.011301033 	0.024520082 	1.882828
0.0024723618 	0.011301033 	0.024520082 	1.882828
0.0024924623 	-0.008806895 	0.028051129 	1.951214
0.0025125628 	-0.008806895 	0.028051129 	1.951214
0.0025326633 	-0.026129933 	0.029566942 	1.9316706
0.0025527638 	-0.026129933 	0.029566942 	1.9316706
0.0025728643 	-0.033104448 	0.031442252 	1.8743063
0.0025929648 	-0.033104448 	0.031442252 	1.8743063
0.0026130653 	-0.052045797 	0.027483819 	1.8278848
0.0026331658 	-0.052045797 	0.027483819 	1.8278848
0.0026532663 	-0.059423581 	-0.023401386 	1.8239326
0.0026733668 	-0.059423581 	-0.023401386 	1.8239326
0.0026934673 	-0.056658717 	-0.054604199 	1.7833456
0.0027135678 	-0.056658717 	-0.054604199 	1.7833456
0.0027336683 	-0.047347067 	-0.042257908 	1.7561106
0.0027537688 	-0.047347067 	-0.042257908 	1.7561106
0.0027738693 	-0.024406679 	-0.034572161 	1.842365
0.0027939698 	-0.024406679 	-0.034572161 	1.842365
0.0028140704 	-0.019270286 	-0.055540422 	1.8821788
0.0028341709 	-0.019270286 	-0.055540422 	1.8821788
0.0028542714 	-0.0095929464 	-0.067844216 	1.8000759
0.0028743719 	-0.0090271859 	-0.046033692 	1.7474687
0.0028944724 	-0.0090271859 	-0.046033692 	1.7474687
0.0029145729 	-0.016473209 	-0.041140579 	1.7352021
0.0029346734 	-0.016473209 	-0.041140579 	1.7352021
0.0029547739 	-0.023134474 	-0.068605113 	1.7329265
0.0029748744 	-0.023134474 	-0.068605113 	1.7329265
0.0029949749 	-0.032052347 	-0.080839579 	1.7468382
0.0030150754 	-0.032821349 	-0.066588816 	1.7734881
0.0030351759 	-0.032821349 	-0.066588816 	1.7734881
0.0030552764 	-0.03594391 	-0.074252752 	1.8128718
0.0030753769 	-0.03594391 	-0.074252752 	1.8128718
0.0030954774 	-0.03236177 	-0.077435422 	1.8189562
0.0031155779 	-0.034457723 	-0.042291654 	1.8018641
0.0031356784 	-0.034457723 	-0.042291654 	1.8018641
0.0031557789 	-0.033960035 	0.0048835928 	1.7655397
0.0031758794 	-0.033960035 	0.0048835928 	1.7655397
0.0031959799 	-0.033153676 	0.042349744 	1.7276267
0.0032160804 	-0.036619835 	0.058465392 	1.6976094
0.0032361809 	-0.036619835 	0.058465392 	1.6976094
0.0032562814 	-0.037220774 	0.058299447 	1.6945562
0.0032763819 	-0.040603792 	0.055408613 	1.6960134
0.0032964824 	-0.040603792 	0.055408613 	1.6960134
0.0033165829 	-0.051924133 	0.07455749 	1.6921995
0.0033366834 	-0.065125776 	0.093342622 	1.6738014
0.0033567839 	-0.065125776 	0.093342622 	1.6738014
0.0033768844 	-0.07868489 	0.090875205 	1.669193
0.0033969849 	-0.089694983 	0.096596132 	1.6614834
0.0034170854 	-0.089694983 	0.096596132 	1.6614834
0.0034371859 	-0.096138559 	0.11742958 	1.6443637
0.0034572864 	-0.09685943 	0.13712966 	1.6225846
0.0034773869 	-0.09059551 	0.12539265 	1.5986193
0.0034974874 	-0.09059551 	0.12539265 	1.5986193
0.0035175879 	-0.080865114 	0.077477589 	1.5907034
0.0035376884 	-0.071290417 	0.043489762 	1.568474
0.0035577889 	-0.071811679 	0.044523977 	1.5962499
0.0035778894 	-0.071811679 	0.044523977 	1.5962499
0.0035979899 	-0.086341693 	0.047504351 	1.6269327
0.0036180905 	-0.09161684 	0.056779395 	1.5962422
0.003638191 	-0.08566623 	0.059478826 	1.5416818
0.0036582915 	-0.08566623 	0.059478826 	1.5416818
0.003678392 	-0.075755149 	0.049358895 	1.5163075
0.0036984925 	-0.069344583 	-0.0030718064 	1.5275096
0.003718593 	-0.062056764 	-0.056764224 	1.5419268
0.0037386935 	-0.061211697 	-0.07289397 	1.5779935
0.003758794 	-0.061283192 	-0.06942509 	1.6022073
0.0037788945 	-0.061283192 	-0.06942509 	1.6022073
0.003798995 	-0.051543816 	-0.039653508 	1.5940596
0.0038190955 	-0.054983329 	-0.0035272483 	1.5988199
0.003839196 	-0.047283701 	-0.070165562 	1.5699909
0.0038592965 	-0.039665313 	-0.13514717 	1.5868199
0.003879397 	-0.017163852 	-0.10661585 	1.5974878
0.0038994975 	-0.0092607952 	-0.048585273 	1.6117863
0.003919598 	-0.0044244031 	0.17568668 	1.643484
0.0039396985 	-0.023162251 	0.30243383 	1.4760262
0.003959799 	-0.0011021278 	0.16289681 	1.1966877
0.0039798995 	-0.013961701 	-0.0048359061 	0.54016204
0.004 	-0.013961701 	-0.0048359061 	0.54016204
