0 	0.0093918292 	-0.0090349663 	2.0904788
2.0100503e-05 	0.010551883 	0.023502948 	2.0686531
4.0201005e-05 	0.010551883 	0.023502948 	2.0686531
6.0301508e-05 	-0.0028634671 	0.048940689 	2.0542935
8.040201e-05 	-0.0028634671 	0.048940689 	2.0542935
0.00010050251 	-0.0028634671 	0.048940689 	2.0542935
0.00012060302 	-0.011818652 	0.056117869 	2.043059
0.00014070352 	-0.011818652 	0.056117869 	2.043059
0.00016080402 	-0.011818652 	0.056117869 	2.043059
0.00018090452 	-0.020703989 	0.04853761 	2.0583949
0.00020100503 	-0.020703989 	0.04853761 	2.0583949
0.00022110553 	-0.020703989 	0.04853761 	2.0583949
0.00024120603 	-0.022515396 	0.03996192 	2.0713979
0.00026130653 	-0.022515396 	0.03996192 	2.0713979
0.00028140704 	-0.018003571 	0.046786646 	2.0734673
0.00030150754 	-0.018003571 	0.046786646 	2.0734673
0.00032160804 	-0.018003571 	0.046786646 	2.0734673
0.00034170854 	-0.021561221 	0.044825885 	2.0995121
0.00036180905 	-0.021561221 	0.044825885 	2.0995121
0.00038190955 	-0.021561221 	0.044825885 	2.0995121
0.00040201005 	-0.019773522 	0.029909992 	2.0853849
0.00042211055 	-0.019773522 	0.029909992 	2.0853849
0.00044221106 	-0.019773522 	0.029909992 	2.0853849
0.00046231156 	-0.027619861 	0.014208917 	2.101721
0.00048241206 	-0.027619861 	0.014208917 	2.101721
0.00050251256 	-0.037785824 	0.011737748 	2.0943311
0.00052261307 	-0.037785824 	0.011737748 	2.0943311
0.00054271357 	-0.037785824 	0.011737748 	2.0943311
0.00056281407 	-0.041947412 	0.015223836 	2.00396
0.00058291457 	-0.041947412 	0.015223836 	2.00396
0.00060301508 	-0.041947412 	0.015223836 	2.00396
0.00062311558 	-0.049565738 	0.031767499 	1.9211985
0.00064321608 	-0.049565738 	0.031767499 	1.9211985
0.00066331658 	-0.049565738 	0.031767499 	1.9211985
0.00068341709 	-0.061523638 	0.051290607 	1.9050671
0.00070351759 	-0.061523638 	0.051290607 	1.9050671
0.00072361809 	-0.056097718 	0.050691485 	1.9422114
0.00074371859 	-0.056097718 	0.050691485 	1.9422114
0.0007638191 	-0.056097718 	0.050691485 	1.9422114
0.0007839196 	-0.057043936 	0.055189831 	1.9665663
0.0008040201 	-0.057043936 	0.055189831 	1.9665663
0.0008241206 	-0.057043936 	0.055189831 	1.9665663
0.00084422111 	-0.07615728 	0.061679789 	1.944856
0.00086432161 	-0.07615728 	0.061679789 	1.944856
0.00088442211 	-0.07615728 	0.061679789 	1.944856
0.00090452261 	-0.069877516 	0.039524155 	1.91738
0.00092462312 	-0.069877516 	0.039524155 	1.91738
0.00094472362 	-0.076143016 	0.040979366 	1.9225178
0.00096482412 	-0.076143016 	0.040979366 	1.9225178
0.00098492462 	-0.076143016 	0.040979366 	1.9225178
0.0010050251 	-0.06491121 	0.044149034 	1.9396765
0.0010251256 	-0.06491121 	0.044149034 	1.9396765
0.0010452261 	-0.06491121 	0.044149034 	1.9396765
0.0010653266 	-0.048329125 	0.040911447 	1.9361866
0.0010854271 	-0.053194344 	0.02899411 	1.9485194
0.0011055276 	-0.053194344 	0.02899411 	1.9485194
0.0011256281 	-0.043112699 	0.025544677 	1.9393945
0.0011457286 	-0.043112699 	0.025544677 	1.9393945
0.0011658291 	-0.043112699 	0.025544677 	1.9393945
0.0011859296 	-0.012033911 	0.054365973 	1.94586
0.0012060302 	-0.012033911 	0.054365973 	1.94586
0.0012261307 	-0.012033911 	0.054365973 	1.94586
0.0012462312 	-0.00098424364 	0.072694048 	1.9411155
0.0012663317 	-0.00098424364 	0.072694048 	1.9411155
0.0012864322 	-0.00098424364 	0.072694048 	1.9411155
0.0013065327 	-0.0041314434 	0.08277695 	1.9468833
0.0013266332 	-0.0041314434 	0.08277695 	1.9468833
0.0013467337 	-0.0041314434 	0.08277695 	1.9468833
0.0013668342 	-0.002583942 	0.084248262 	1.9688753
0.0013869347 	-0.002583942 	0.084248262 	1.9688753
0.0014070352 	-0.002583942 	0.084248262 	1.9688753
0.0014271357 	-0.0050048504 	0.075500006 	1.9373775
0.0014472362 	-0.0050048504 	0.075500006 	1.9373775
0.0014673367 	-0.0050048504 	0.075500006 	1.9373775
0.0014874372 	-0.010799006 	0.040204605 	1.9175767
0.0015075377 	-0.010799006 	0.040204605 	1.9175767
0.0015276382 	-0.02370511 	-0.0075360105 	1.9130543
0.0015477387 	-0.02370511 	-0.0075360105 	1.9130543
0.0015678392 	-0.02370511 	-0.0075360105 	1.9130543
0.0015879397 	-0.042418192 	-0.023873722 	1.9495471
0.0016080402 	-0.042418192 	-0.023873722 	1.9495471
0.0016281407 	-0.042418192 	-0.023873722 	1.9495471
0.0016482412 	-0.025022142 	-0.014838204 	1.9585738
0.0016683417 	-0.025022142 	-0.014838204 	1.9585738
0.0016884422 	-0.026803361 	-0.015197958 	1.9565104
0.0017085427 	-0.026803361 	-0.015197958 	1.9565104
0.0017286432 	-0.026803361 	-0.015197958 	1.9565104
0.0017487437 	-0.02782056 	-0.024588689 	1.9585047
0.0017688442 	-0.02782056 	-0.024588689 	1.9585047
0.0017889447 	-0.02782056 	-0.024588689 	1.9585047
0.0018090452 	-0.024439519 	-0.014263025 	1.9747605
0.0018291457 	-0.024439519 	-0.014263025 	1.9747605
0.0018492462 	-0.021242777 	0.0089029286 	1.9779522
0.0018693467 	-0.021242777 	0.0089029286 	1.9779522
0.0018894472 	-0.021242777 	0.0089029286 	1.9779522
0.0019095477 	-0.0052811072 	0.037721208 	1.9787135
0.0019296482 	-0.0052811072 	0.037721208 	1.9787135
0.0019497487 	0.0045124076 	0.059890651 	1.9364175
0.0019698492 	0.0045124076 	0.059890651 	1.9364175
0.0019899497 	0.0045124076 	0.059890651 	1.9364175
0.0020100503 	0.018308192 	0.058338504 	1.9298534
0.0020301508 	0.018308192 	0.058338504 	1.9298534
0.0020502513 	0.020373006 	0.051788184 	1.9139676
0.0020703518 	0.020373006 	0.051788184 	1.9139676
0.0020904523 	0.028188955 	0.055080359 	1.9588674
0.0021105528 	0.028188955 	0.055080359 	1.9588674
0.0021306533 	0.028188955 	0.055080359 	1.9588674
0.0021507538 	0.014876894 	0.04499743 	1.9733935
0.0021708543 	0.014876894 	0.04499743 	1.9733935
0.0021909548 	0.023461173 	0.026719283 	1.9280842
0.0022110553 	0.023461173 	0.026719283 	1.9280842
0.0022311558 	0.02762445 	0.024208837 	1.968145
0.0022512563 	0.02762445 	0.024208837 	1.968145
0.0022713568 	0.032311745 	0.03218594 	1.9754388
0.0022914573 	0.032311745 	0.03218594 	1.9754388
0.0023115578 	0.032311745 	0.03218594 	1.9754388
0.0023316583 	0.042823849 	0.045735544 	1.8835786
0.0023517588 	0.042823849 	0.045735544 	1.8835786
0.0023718593 	0.028636146 	0.049681994 	1.8536515
0.0023919598 	0.028636146 	0.049681994 	1.8536515
0.0024120603 	0.017336077 	0.056009334 	1.8728683
0.0024321608 	0.017336077 	0.056009334 	1.8728683
0.0024522613 	0.019030771 	0.058244513 	1.9644794
0.0024723618 	0.019030771 	0.058244513 	1.9644794
0.0024924623 	0.025120015 	0.03772808 	1.9979947
0.0025125628 	0.025120015 	0.03772808 	1.9979947
0.0025326633 	0.038271024 	0.041545215 	1.9708436
0.0025527638 	0.038271024 	0.041545215 	1.9708436
0.0025728643 	0.027641432 	0.071433096 	1.9299651
0.0025929648 	0.027641432 	0.071433096 	1.9299651
0.0026130653 	0.00902605 	0.084888434 	1.928416
0.0026331658 	0.00902605 	0.084888434 	1.928416
0.0026532663 	-0.002086017 	0.050851707 	1.9357377
0.0026733668 	-0.002086017 	0.050851707 	1.9357377
0.0026934673 	-0.0034427059 	0.0037559385 	1.8996766
0.0027135678 	-0.0034427059 	0.0037559385 	1.8996766
0.0027336683 	-0.015077183 	0.0046556231 	1.8644075
0.0027537688 	-0.015077183 	0.0046556231 	1.8644075
0.0027738693 	-0.0094159431 	0.049821598 	1.9558868
0.0027939698 	-0.0094159431 	0.049821598 	1.9558868
0.0028140704 	0.0046063607 	0.014113358 	2.0139295
0.0028341709 	0.0046063607 	0.014113358 	2.0139295
0.0028542714 	0.0057023927 	-0.0098286053 	1.9627409
0.0028743719 	0.024281805 	0.058254493 	1.998303
0.0028944724 	0.024281805 	0.058254493 	1.998303
0.0029145729 	0.024379233 	0.14186667 	2.0106139
0.0029346734 	0.024379233 	0.14186667 	2.0106139
0.0029547739 	0.00068573917 	0.18666196 	2.0018053
0.0029748744 	0.00068573917 	0.18666196 	2.0018053
0.0029949749 	-0.001208611 	0.11079722 	1.9878577
0.0030150754 	-0.001300501 	0.063401182 	2.0083869
0.0030351759 	-0.001300501 	0.063401182 	2.0083869
0.0030552764 	-0.0067833844 	-0.014836286 	1.9334451
0.0030753769 	-0.0067833844 	-0.014836286 	1.9334451
0.0030954774 	-0.015673841 	-0.077941242 	1.8249878
0.0031155779 	-0.030962909 	-0.083966076 	1.7224848
0.0031356784 	-0.030962909 	-0.083966076 	1.7224848
0.0031557789 	-0.045433111 	-0.077597112 	1.6322576
0.0031758794 	-0.045433111 	-0.077597112 	1.6322576
0.0031959799 	-0.065437426 	-0.059865872 	1.6049076
0.0032160804 	-0.075298048 	0.0044521744 	1.5981611
0.0032361809 	-0.075298048 	0.0044521744 	1.5981611
0.0032562814 	-0.077790523 	0.03151891 	1.6011526
0.0032763819 	-0.078695862 	0.029646101 	1.5867276
0.0032964824 	-0.078695862 	0.029646101 	1.5867276
0.0033165829 	-0.077793559 	0.059794404 	1.5934872
0.0033366834 	-0.068394734 	0.052687582 	1.6342762
0.0033567839 	-0.068394734 	0.052687582 	1.6342762
0.0033768844 	-0.060699885 	0.022939302 	1.6681923
0.0033969849 	-0.062008165 	-0.0030373115 	1.7024939
0.0034170854 	-0.062008165 	-0.0030373115 	1.7024939
0.0034371859 	-0.063119022 	-0.055716125 	1.7240516
0.0034572864 	-0.06369264 	-0.086424634 	1.7359003
0.0034773869 	-0.066344342 	-0.087343946 	1.7326004
0.0034974874 	-0.066344342 	-0.087343946 	1.7326004
0.0035175879 	-0.063073357 	-0.078478752 	1.7178093
0.0035376884 	-0.066988727 	-0.051587342 	1.7336238
0.0035577889 	-0.065927301 	-0.065796587 	1.7872452
0.0035778894 	-0.065927301 	-0.065796587 	1.7872452
0.0035979899 	-0.065662268 	-0.060336746 	1.7303094
0.0036180905 	-0.057553945 	-0.042345255 	1.6611558
0.003638191 	-0.063434348 	-0.03317542 	1.6430851
0.0036582915 	-0.063434348 	-0.03317542 	1.6430851
0.003678392 	-0.068671349 	-0.0091558373 	1.6476673
0.0036984925 	-0.065710936 	-0.0092937353 	1.6821793
0.003718593 	-0.061843664 	-0.0035836787 	1.7426379
0.0037386935 	-0.041447359 	0.0064720569 	1.8030269
0.003758794 	-0.017645067 	-0.05105947 	1.8213631
0.0037788945 	-0.017645067 	-0.05105947 	1.8213631
0.003798995 	0.0071310719 	-0.065259269 	1.8247156
0.0038190955 	0.02088375 	-0.044099237 	1.7846198
0.003839196 	0.040378333 	0.0089291246 	1.7421908
0.0038592965 	0.030548281 	0.061486765 	1.8031718
0.003879397 	0.042085957 	0.16339928 	1.7653828
0.0038994975 	0.029764487 	0.50883024 	1.6544323
0.003919598 	0.040744228 	0.32910551 	1.5262322
0.0039396985 	0.04187904 	-0.23168801 	1.3507193
0.003959799 	0.010550275 	-0.2297657 	1.1298457
0.0039798995 	0.016008633 	-0.17543938 	0.58137327
0.004 	0.016008633 	-0.17543938 	0.58137327
