0 	-0.013248969 	0.023150059 	2.0865586
2.0100503e-05 	-0.028168509 	-0.017128922 	2.0821903
4.0201005e-05 	-0.028168509 	-0.017128922 	2.0821903
6.0301508e-05 	-0.010881484 	-0.022448676 	2.0765871
8.040201e-05 	-0.010881484 	-0.022448676 	2.0765871
0.00010050251 	-0.010881484 	-0.022448676 	2.0765871
0.00012060302 	0.0020717804 	-0.025303548 	2.0875423
0.00014070352 	0.0020717804 	-0.025303548 	2.0875423
0.00016080402 	0.0020717804 	-0.025303548 	2.0875423
0.00018090452 	0.011909363 	-0.032863705 	2.113303
0.00020100503 	0.011909363 	-0.032863705 	2.113303
0.00022110553 	0.011909363 	-0.032863705 	2.113303
0.00024120603 	0.012130304 	-0.033502335 	2.1212921
0.00026130653 	0.012130304 	-0.033502335 	2.1212921
0.00028140704 	0.012908956 	-0.038270607 	2.1258157
0.00030150754 	0.012908956 	-0.038270607 	2.1258157
0.00032160804 	0.012908956 	-0.038270607 	2.1258157
0.00034170854 	0.020259157 	-0.039115984 	2.1168544
0.00036180905 	0.020259157 	-0.039115984 	2.1168544
0.00038190955 	0.020259157 	-0.039115984 	2.1168544
0.00040201005 	0.021083166 	-0.036210257 	2.0933312
0.00042211055 	0.021083166 	-0.036210257 	2.0933312
0.00044221106 	0.021083166 	-0.036210257 	2.0933312
0.00046231156 	0.02112427 	-0.036736433 	2.0485196
0.00048241206 	0.02112427 	-0.036736433 	2.0485196
0.00050251256 	0.024772069 	-0.033309442 	2.0327024
0.00052261307 	0.024772069 	-0.033309442 	2.0327024
0.00054271357 	0.024772069 	-0.033309442 	2.0327024
0.00056281407 	0.016945203 	-0.020074774 	2.0385083
0.00058291457 	0.016945203 	-0.020074774 	2.0385083
0.00060301508 	0.016945203 	-0.020074774 	2.0385083
0.00062311558 	0.016305252 	-0.036126892 	2.0436102
0.00064321608 	0.016305252 	-0.036126892 	2.0436102
0.00066331658 	0.016305252 	-0.036126892 	2.0436102
0.00068341709 	0.017000369 	-0.035917844 	2.0412761
0.00070351759 	0.017000369 	-0.035917844 	2.0412761
0.00072361809 	0.022249822 	-0.054642079 	2.0478933
0.00074371859 	0.022249822 	-0.054642079 	2.0478933
0.0007638191 	0.022249822 	-0.054642079 	2.0478933
0.0007839196 	0.019057535 	-0.040472237 	2.0416276
0.0008040201 	0.019057535 	-0.040472237 	2.0416276
0.0008241206 	0.019057535 	-0.040472237 	2.0416276
0.00084422111 	0.028330737 	-0.040078898 	2.007309
0.00086432161 	0.028330737 	-0.040078898 	2.007309
0.00088442211 	0.028330737 	-0.040078898 	2.007309
0.00090452261 	0.014901133 	-0.060652677 	1.9918161
0.00092462312 	0.014901133 	-0.060652677 	1.9918161
0.00094472362 	0.0084205047 	-0.056407138 	2.0232808
0.00096482412 	0.0084205047 	-0.056407138 	2.0232808
0.00098492462 	0.0084205047 	-0.056407138 	2.0232808
0.0010050251 	-0.021982895 	-0.083382677 	2.0091989
0.0010251256 	-0.021982895 	-0.083382677 	2.0091989
0.0010452261 	-0.021982895 	-0.083382677 	2.0091989
0.0010653266 	-0.038122788 	-0.072683676 	1.9243687
0.0010854271 	-0.038122788 	-0.072683676 	1.9243687
0.0011055276 	-0.038122788 	-0.072683676 	1.9243687
0.0011256281 	-0.059635678 	-0.038226244 	1.9006858
0.0011457286 	-0.059635678 	-0.038226244 	1.9006858
0.0011658291 	-0.059635678 	-0.038226244 	1.9006858
0.0011859296 	-0.078831086 	-0.012239741 	1.8702833
0.0012060302 	-0.078831086 	-0.012239741 	1.8702833
0.0012261307 	-0.078831086 	-0.012239741 	1.8702833
0.0012462312 	-0.079181601 	-0.016861199 	1.8643291
0.0012663317 	-0.079181601 	-0.016861199 	1.8643291
0.0012864322 	-0.079181601 	-0.016861199 	1.8643291
0.0013065327 	-0.073452924 	-0.02929811 	1.9162895
0.0013266332 	-0.073452924 	-0.02929811 	1.9162895
0.0013467337 	-0.073452924 	-0.02929811 	1.9162895
0.0013668342 	-0.040419841 	-0.037176404 	1.9228672
0.0013869347 	-0.040419841 	-0.037176404 	1.9228672
0.0014070352 	-0.040419841 	-0.037176404 	1.9228672
0.0014271357 	-0.031078261 	-0.0030627054 	1.9166508
0.0014472362 	-0.031078261 	-0.0030627054 	1.9166508
0.0014673367 	-0.031078261 	-0.0030627054 	1.9166508
0.0014874372 	-0.032580514 	0.010947171 	1.950391
0.0015075377 	-0.032580514 	0.010947171 	1.950391
0.0015276382 	-0.014604196 	-0.0074213819 	1.958681
0.0015477387 	-0.014604196 	-0.0074213819 	1.958681
0.0015678392 	-0.014604196 	-0.0074213819 	1.958681
0.0015879397 	-0.022603249 	0.00063297571 	1.924447
0.0016080402 	-0.022603249 	0.00063297571 	1.924447
0.0016281407 	-0.022603249 	0.00063297571 	1.924447
0.0016482412 	-0.018147988 	0.01681547 	1.971616
0.0016683417 	-0.018147988 	0.01681547 	1.971616
0.0016884422 	-0.011299862 	0.016379319 	1.9717133
0.0017085427 	-0.011299862 	0.016379319 	1.9717133
0.0017286432 	-0.011299862 	0.016379319 	1.9717133
0.0017487437 	0.0042302642 	-0.0052067179 	1.942096
0.0017688442 	0.0042302642 	-0.0052067179 	1.942096
0.0017889447 	0.0042302642 	-0.0052067179 	1.942096
0.0018090452 	0.011834934 	-0.021078523 	1.9547688
0.0018291457 	0.011834934 	-0.021078523 	1.9547688
0.0018492462 	0.01735907 	-0.0074213636 	2.0371673
0.0018693467 	0.01735907 	-0.0074213636 	2.0371673
0.0018894472 	0.01735907 	-0.0074213636 	2.0371673
0.0019095477 	0.0060587468 	-0.012949139 	2.0143875
0.0019296482 	0.0060587468 	-0.012949139 	2.0143875
0.0019497487 	-0.01721911 	0.015519906 	2.0054133
0.0019698492 	-0.01721911 	0.015519906 	2.0054133
0.0019899497 	-0.01721911 	0.015519906 	2.0054133
0.0020100503 	-0.026474917 	0.058136982 	1.9631352
0.0020301508 	-0.026474917 	0.058136982 	1.9631352
0.0020502513 	-0.01944423 	0.044495648 	1.9157666
0.0020703518 	-0.01944423 	0.044495648 	1.9157666
0.0020904523 	-0.0061299656 	0.029542485 	1.8873383
0.0021105528 	-0.0061299656 	0.029542485 	1.8873383
0.0021306533 	-0.0061299656 	0.029542485 	1.8873383
0.0021507538 	-0.016013143 	0.040234207 	1.867661
0.0021708543 	-0.016013143 	0.040234207 	1.867661
0.0021909548 	-0.02800609 	0.015274421 	1.8587876
0.0022110553 	-0.02800609 	0.015274421 	1.8587876
0.0022311558 	-0.014746853 	-0.0019709452 	1.8799196
0.0022512563 	-0.014746853 	-0.0019709452 	1.8799196
0.0022713568 	-0.019442957 	0.0080419846 	1.8912286
0.0022914573 	-0.019442957 	0.0080419846 	1.8912286
0.0023115578 	-0.019442957 	0.0080419846 	1.8912286
0.0023316583 	-0.030018607 	0.01295089 	1.8549972
0.0023517588 	-0.030018607 	0.01295089 	1.8549972
0.0023718593 	-0.029163098 	0.031705177 	1.8686614
0.0023919598 	-0.029163098 	0.031705177 	1.8686614
0.0024120603 	-0.017774114 	0.045821868 	1.8758294
0.0024321608 	-0.017774114 	0.045821868 	1.8758294
0.0024522613 	-0.014734748 	0.051739366 	1.8808207
0.0024723618 	-0.014734748 	0.051739366 	1.8808207
0.0024924623 	0.012707628 	0.04256443 	1.8739011
0.0025125628 	0.012707628 	0.04256443 	1.8739011
0.0025326633 	0.010580519 	0.038650163 	1.8879658
0.0025527638 	0.010580519 	0.038650163 	1.8879658
0.0025728643 	0.026491118 	0.060242623 	1.8540975
0.0025929648 	0.026491118 	0.060242623 	1.8540975
0.0026130653 	0.033269001 	0.050206363 	1.816453
0.0026331658 	0.033269001 	0.050206363 	1.816453
0.0026532663 	0.033943644 	0.025104767 	1.8446104
0.0026733668 	0.033943644 	0.025104767 	1.8446104
0.0026934673 	0.045022505 	0.013631029 	1.8089189
0.0027135678 	0.045022505 	0.013631029 	1.8089189
0.0027336683 	0.050091536 	-0.016470723 	1.8087787
0.0027537688 	0.050091536 	-0.016470723 	1.8087787
0.0027738693 	0.018965452 	-0.061483187 	1.8664023
0.0027939698 	0.018965452 	-0.061483187 	1.8664023
0.0028140704 	0.0017524916 	-0.045047023 	1.8015624
0.0028341709 	0.0017524916 	-0.045047023 	1.8015624
0.0028542714 	-0.030717023 	-0.010408917 	1.8480907
0.0028743719 	-0.028470634 	-0.014744199 	1.9409336
0.0028944724 	-0.028470634 	-0.014744199 	1.9409336
0.0029145729 	-0.015223512 	-0.021166155 	1.9009497
0.0029346734 	-0.015223512 	-0.021166155 	1.9009497
0.0029547739 	0.0027871271 	-0.012477073 	1.8674421
0.0029748744 	0.0027871271 	-0.012477073 	1.8674421
0.0029949749 	0.019509109 	0.0072383703 	1.8647209
0.0030150754 	0.033624024 	0.039027256 	1.8849309
0.0030351759 	0.033624024 	0.039027256 	1.8849309
0.0030552764 	0.040919132 	0.031941976 	1.9471654
0.0030753769 	0.040919132 	0.031941976 	1.9471654
0.0030954774 	0.045688223 	-0.0043011638 	1.9570676
0.0031155779 	0.049789026 	-0.030614431 	1.8926536
0.0031356784 	0.049789026 	-0.030614431 	1.8926536
0.0031557789 	0.045514312 	-0.024266489 	1.8307354
0.0031758794 	0.045514312 	-0.024266489 	1.8307354
0.0031959799 	0.033283381 	-0.010251798 	1.7731782
0.0032160804 	0.029861918 	0.006259723 	1.748634
0.0032361809 	0.029861918 	0.006259723 	1.748634
0.0032562814 	0.02929618 	0.036534162 	1.7592247
0.0032763819 	0.030004685 	0.068117143 	1.7688268
0.0032964824 	0.030004685 	0.068117143 	1.7688268
0.0033165829 	0.030360626 	0.083644706 	1.7757407
0.0033366834 	0.035534604 	0.054883969 	1.760836
0.0033567839 	0.035534604 	0.054883969 	1.760836
0.0033768844 	0.045502925 	0.035855975 	1.7239925
0.0033969849 	0.053363391 	0.028068375 	1.6857778
0.0034170854 	0.053363391 	0.028068375 	1.6857778
0.0034371859 	0.053212432 	0.003063393 	1.6718286
0.0034572864 	0.051568423 	-0.012874094 	1.6699615
0.0034773869 	0.058839679 	-0.0074621141 	1.6903477
0.0034974874 	0.058839679 	-0.0074621141 	1.6903477
0.0035175879 	0.063380953 	0.0065389985 	1.7055907
0.0035376884 	0.070025118 	0.032094072 	1.7036204
0.0035577889 	0.071732856 	0.087819891 	1.6932018
0.0035778894 	0.071732856 	0.087819891 	1.6932018
0.0035979899 	0.058058637 	0.15236856 	1.6972674
0.0036180905 	0.032036767 	0.19004427 	1.6883179
0.003638191 	0.01607774 	0.19556159 	1.6590756
0.0036582915 	0.01607774 	0.19556159 	1.6590756
0.003678392 	0.011810471 	0.15896438 	1.613956
0.0036984925 	0.015627082 	0.11750453 	1.5599648
0.003718593 	0.028166444 	0.086772663 	1.5166828
0.0037386935 	0.033561462 	0.05210334 	1.4920359
0.003758794 	0.033389423 	0.027396541 	1.472667
0.0037788945 	0.033389423 	0.027396541 	1.472667
0.003798995 	0.045376207 	0.015118126 	1.4518761
0.0038190955 	0.032191881 	-0.048973859 	1.4667496
0.003839196 	0.041462887 	-0.116309 	1.4993629
0.0038592965 	0.018181947 	-0.13000124 	1.5391048
0.003879397 	0.015162877 	0.048472136 	1.5427358
0.0038994975 	-0.0034791682 	0.10454668 	1.487695
0.003919598 	-0.018174483 	-0.08040365 	1.4456584
0.0039396985 	0.010239168 	0.24051326 	1.2794831
0.003959799 	0.0047316295 	-0.12422661 	1.4320126
0.0039798995 	0.0049979993 	0.10333036 	0.38770221
0.004 	0.0049979993 	0.10333036 	0.38770221
