0 	0.017650319 	-0.011543892 	2.0871969
2.0100503e-05 	0.017650319 	-0.011543892 	2.0871969
4.0201005e-05 	0.017650319 	-0.011543892 	2.0871969
6.0301508e-05 	0.021681304 	-0.00041471292 	2.0742894
8.040201e-05 	0.021681304 	-0.00041471292 	2.0742894
0.00010050251 	0.021681304 	-0.00041471292 	2.0742894
0.00012060302 	0.025241405 	-0.007027371 	2.0797835
0.00014070352 	0.025241405 	-0.007027371 	2.0797835
0.00016080402 	0.025241405 	-0.007027371 	2.0797835
0.00018090452 	0.019490329 	-0.013242861 	2.0982723
0.00020100503 	0.019490329 	-0.013242861 	2.0982723
0.00022110553 	0.019490329 	-0.013242861 	2.0982723
0.00024120603 	0.0030089467 	-0.014014158 	2.0956472
0.00026130653 	0.0030089467 	-0.014014158 	2.0956472
0.00028140704 	0.014917135 	0.0027925608 	2.0485601
0.00030150754 	0.014917135 	0.0027925608 	2.0485601
0.00032160804 	0.014917135 	0.0027925608 	2.0485601
0.00034170854 	0.02000663 	0.001800135 	2.0341578
0.00036180905 	0.02000663 	0.001800135 	2.0341578
0.00038190955 	0.02000663 	0.001800135 	2.0341578
0.00040201005 	0.019991785 	-0.0058248862 	2.0541967
0.00042211055 	0.019991785 	-0.0058248862 	2.0541967
0.00044221106 	0.019991785 	-0.0058248862 	2.0541967
0.00046231156 	0.024169064 	-0.013721582 	2.0780781
0.00048241206 	0.024169064 	-0.013721582 	2.0780781
0.00050251256 	0.020998978 	-0.019007631 	2.1016392
0.00052261307 	0.020998978 	-0.019007631 	2.1016392
0.00054271357 	0.020998978 	-0.019007631 	2.1016392
0.00056281407 	0.021268734 	-0.025742625 	2.0849967
0.00058291457 	0.021268734 	-0.025742625 	2.0849967
0.00060301508 	0.021268734 	-0.025742625 	2.0849967
0.00062311558 	0.014593556 	-0.018606945 	2.0725227
0.00064321608 	0.014593556 	-0.018606945 	2.0725227
0.00066331658 	0.014593556 	-0.018606945 	2.0725227
0.00068341709 	0.017107891 	-0.0073006556 	2.056732
0.00070351759 	0.013767565 	-0.0083212493 	2.0545163
0.00072361809 	0.014381837 	-0.0054809005 	2.0471808
0.00074371859 	0.014381837 	-0.0054809005 	2.0471808
0.0007638191 	0.014381837 	-0.0054809005 	2.0471808
0.0007839196 	0.019980894 	0.005867404 	2.0441759
0.0008040201 	0.019980894 	0.005867404 	2.0441759
0.0008241206 	0.019980894 	0.005867404 	2.0441759
0.00084422111 	0.016065445 	0.021228898 	2.0544709
0.00086432161 	0.016065445 	0.021228898 	2.0544709
0.00088442211 	0.0062313327 	0.018991858 	2.0487161
0.00090452261 	0.018641235 	0.020911838 	2.0439951
0.00092462312 	0.018641235 	0.020911838 	2.0439951
0.00094472362 	0.012671538 	0.024475963 	2.0372098
0.00096482412 	0.012671538 	0.024475963 	2.0372098
0.00098492462 	0.0083959536 	0.024869085 	2.030962
0.0010050251 	-0.0049511169 	0.038170983 	2.0081197
0.0010251256 	-0.0049511169 	0.038170983 	2.0081197
0.0010452261 	-0.0049511169 	0.038170983 	2.0081197
0.0010653266 	-0.0037151757 	0.047152345 	1.9790178
0.0010854271 	0.0032247008 	0.043251154 	1.9923984
0.0011055276 	0.0032247008 	0.043251154 	1.9923984
0.0011256281 	0.0085219454 	0.053855155 	1.9752735
0.0011457286 	-0.012872857 	0.048820285 	1.9745752
0.0011658291 	-0.012872857 	0.048820285 	1.9745752
0.0011859296 	-0.01286992 	0.045236816 	1.9722035
0.0012060302 	-0.01286992 	0.045236816 	1.9722035
0.0012261307 	-0.01286992 	0.045236816 	1.9722035
0.0012462312 	-0.0074534626 	0.025406267 	1.9785977
0.0012663317 	-0.0074534626 	0.025406267 	1.9785977
0.0012864322 	-0.0074534626 	0.025406267 	1.9785977
0.0013065327 	-0.0038842377 	-0.0015156555 	1.9714415
0.0013266332 	-0.0038842377 	-0.0015156555 	1.9714415
0.0013467337 	-0.0038842377 	-0.0015156555 	1.9714415
0.0013668342 	-0.0034972991 	-0.028940919 	1.9709318
0.0013869347 	-0.0034972991 	-0.028940919 	1.9709318
0.0014070352 	-0.0034972991 	-0.028940919 	1.9709318
0.0014271357 	-0.021266757 	-0.06213304 	1.982211
0.0014472362 	-0.021266757 	-0.06213304 	1.982211
0.0014673367 	-0.021266757 	-0.06213304 	1.982211
0.0014874372 	-0.010874262 	-0.11266211 	1.9747034
0.0015075377 	-0.010874262 	-0.11266211 	1.9747034
0.0015276382 	-0.0026826416 	-0.10123145 	1.976987
0.0015477387 	-0.0026826416 	-0.10123145 	1.976987
0.0015678392 	-0.0026826416 	-0.10123145 	1.976987
0.0015879397 	0.007346477 	-0.044487013 	1.958376
0.0016080402 	0.007346477 	-0.044487013 	1.958376
0.0016281407 	0.007346477 	-0.044487013 	1.958376
0.0016482412 	0.0020623886 	-0.030741085 	1.9433128
0.0016683417 	0.0020623886 	-0.030741085 	1.9433128
0.0016884422 	-0.016759694 	-0.062677915 	1.9404745
0.0017085427 	-0.016759694 	-0.062677915 	1.9404745
0.0017286432 	-0.016759694 	-0.062677915 	1.9404745
0.0017487437 	-0.0057353397 	-0.088300095 	1.8804389
0.0017688442 	-0.0057353397 	-0.088300095 	1.8804389
0.0017889447 	-0.0057353397 	-0.088300095 	1.8804389
0.0018090452 	-0.012250525 	-0.085218036 	1.8826134
0.0018291457 	-0.012250525 	-0.085218036 	1.8826134
0.0018492462 	-0.012849217 	-0.08819947 	1.9078755
0.0018693467 	-0.012849217 	-0.08819947 	1.9078755
0.0018894472 	-0.012849217 	-0.08819947 	1.9078755
0.0019095477 	-0.023048646 	-0.072433263 	1.8847195
0.0019296482 	-0.023048646 	-0.072433263 	1.8847195
0.0019497487 	-0.038183907 	-0.034302195 	1.8880608
0.0019698492 	-0.038183907 	-0.034302195 	1.8880608
0.0019899497 	-0.024994829 	-0.050457582 	1.8794329
0.0020100503 	-0.024994829 	-0.050457582 	1.8794329
0.0020301508 	-0.024994829 	-0.050457582 	1.8794329
0.0020502513 	-0.028981637 	-0.053149676 	1.9015847
0.0020703518 	-0.028981637 	-0.053149676 	1.9015847
0.0020904523 	-0.020193217 	-0.031686736 	1.8964065
0.0021105528 	-0.020193217 	-0.031686736 	1.8964065
0.0021306533 	-0.020193217 	-0.031686736 	1.8964065
0.0021507538 	-0.031266251 	-0.04785934 	1.8705016
0.0021708543 	-0.031266251 	-0.04785934 	1.8705016
0.0021909548 	-0.050989959 	-0.032474646 	1.8878457
0.0022110553 	-0.050989959 	-0.032474646 	1.8878457
0.0022311558 	-0.061993757 	-0.036498034 	1.8779704
0.0022512563 	-0.061993757 	-0.036498034 	1.8779704
0.0022713568 	-0.053877372 	-0.057835563 	1.7762929
0.0022914573 	-0.053877372 	-0.057835563 	1.7762929
0.0023115578 	-0.053877372 	-0.057835563 	1.7762929
0.0023316583 	-0.051903555 	0.0049025427 	1.7642637
0.0023517588 	-0.051903555 	0.0049025427 	1.7642637
0.0023718593 	-0.060812543 	-0.00068183065 	1.7782193
0.0023919598 	-0.060812543 	-0.00068183065 	1.7782193
0.0024120603 	-0.068253997 	-0.058868133 	1.7383949
0.0024321608 	-0.068253997 	-0.058868133 	1.7383949
0.0024522613 	-0.090737063 	-0.04664304 	1.7934658
0.0024723618 	-0.090737063 	-0.04664304 	1.7934658
0.0024924623 	-0.10935594 	-0.0045709585 	1.8653164
0.0025125628 	-0.10935594 	-0.0045709585 	1.8653164
0.0025326633 	-0.12446466 	-0.011648401 	1.8115836
0.0025527638 	-0.12446466 	-0.011648401 	1.8115836
0.0025728643 	-0.12453353 	-0.033191668 	1.7890168
0.0025929648 	-0.12453353 	-0.033191668 	1.7890168
0.0026130653 	-0.12350039 	-0.078012724 	1.8099287
0.0026331658 	-0.12350039 	-0.078012724 	1.8099287
0.0026532663 	-0.11294348 	-0.089892025 	1.8164814
0.0026733668 	-0.11294348 	-0.089892025 	1.8164814
0.0026934673 	-0.095424928 	-0.069870441 	1.8218016
0.0027135678 	-0.095424928 	-0.069870441 	1.8218016
0.0027336683 	-0.097742386 	-0.023726543 	1.8371323
0.0027537688 	-0.097742386 	-0.023726543 	1.8371323
0.0027738693 	-0.10965829 	-0.021545805 	1.7371644
0.0027939698 	-0.10965829 	-0.021545805 	1.7371644
0.0028140704 	-0.11550023 	-0.035025537 	1.6665949
0.0028341709 	-0.11550023 	-0.035025537 	1.6665949
0.0028542714 	-0.13942335 	-0.023770727 	1.6448196
0.0028743719 	-0.10961879 	-0.058200544 	1.6554462
0.0028944724 	-0.10961879 	-0.058200544 	1.6554462
0.0029145729 	-0.11028578 	-0.063922992 	1.7048229
0.0029346734 	-0.11028578 	-0.063922992 	1.7048229
0.0029547739 	-0.067592981 	-0.072823336 	1.7551053
0.0029748744 	-0.067592981 	-0.072823336 	1.7551053
0.0029949749 	-0.064902425 	-0.084875434 	1.8036797
0.0030150754 	-0.047754762 	-0.012376074 	1.7911584
0.0030351759 	-0.047754762 	-0.012376074 	1.7911584
0.0030552764 	-0.063901535 	-0.022120244 	1.6788162
0.0030753769 	-0.063901535 	-0.022120244 	1.6788162
0.0030954774 	-0.084262036 	-0.0036687981 	1.6760904
0.0031155779 	-0.10133288 	0.0085866663 	1.7447914
0.0031356784 	-0.10133288 	0.0085866663 	1.7447914
0.0031557789 	-0.10497364 	-0.023869934 	1.7524997
0.0031758794 	-0.10497364 	-0.023869934 	1.7524997
0.0031959799 	-0.12429086 	-0.068673124 	1.71123
0.0032160804 	-0.12056799 	-0.076340544 	1.6471875
0.0032361809 	-0.12056799 	-0.076340544 	1.6471875
0.0032562814 	-0.12708404 	-0.092541922 	1.589313
0.0032763819 	-0.12361765 	-0.13402498 	1.554311
0.0032964824 	-0.12361765 	-0.13402498 	1.554311
0.0033165829 	-0.13198571 	-0.076431398 	1.6237038
0.0033366834 	-0.13140269 	0.032890533 	1.6472027
0.0033567839 	-0.13140269 	0.032890533 	1.6472027
0.0033768844 	-0.12899791 	0.034478824 	1.5722356
0.0033969849 	-0.11468529 	0.012848825 	1.6158205
0.0034170854 	-0.11468529 	0.012848825 	1.6158205
0.0034371859 	-0.10566556 	0.019194209 	1.6719656
0.0034572864 	-0.073723439 	0.042220989 	1.6456616
0.0034773869 	-0.063108921 	0.064718517 	1.6761051
0.0034974874 	-0.063108921 	0.064718517 	1.6761051
0.0035175879 	-0.049814053 	0.055717097 	1.6963922
0.0035376884 	-0.042903586 	0.072585392 	1.6708958
0.0035577889 	-0.046520672 	0.1588779 	1.6634469
0.0035778894 	-0.046520672 	0.1588779 	1.6634469
0.0035979899 	-0.05053963 	0.2302024 	1.6637763
0.0036180905 	-0.059655996 	0.22815388 	1.6609222
0.003638191 	-0.067095088 	0.18838748 	1.6243635
0.0036582915 	-0.067095088 	0.18838748 	1.6243635
0.003678392 	-0.0602875 	0.12443825 	1.5447662
0.0036984925 	-0.054586362 	0.12155481 	1.4602928
0.003718593 	-0.065884172 	0.079173865 	1.5054368
0.0037386935 	-0.054968885 	-0.029115787 	1.5830516
0.003758794 	-0.036219283 	-0.069733097 	1.5037118
0.0037788945 	-0.036219283 	-0.069733097 	1.5037118
0.003798995 	-0.003403215 	-0.05424771 	1.3970616
0.0038190955 	0.017881958 	-0.066291959 	1.399018
0.003839196 	0.042657683 	-0.090555792 	1.4074784
0.0038592965 	0.055257637 	-0.067751228 	1.3545931
0.003879397 	0.0766123 	-0.056196687 	1.4151161
0.0038994975 	0.0620829 	-0.026160223 	1.3584959
0.003919598 	0.087457836 	-0.12025311 	1.3412063
0.0039396985 	0.064672432 	-0.20435474 	1.2992397
0.003959799 	0.013062005 	-0.29627807 	1.5293145
0.0039798995 	-0.005673475 	0.13435911 	0.59509236
0.004 	-0.005673475 	0.13435911 	0.59509236
