0 	-0.029506361 	-0.016796643 	2.0918599
2.0100503e-05 	-0.029506361 	-0.016796643 	2.0918599
4.0201005e-05 	-0.029506361 	-0.016796643 	2.0918599
6.0301508e-05 	-0.049542819 	-0.04775148 	2.0761056
8.040201e-05 	-0.049542819 	-0.04775148 	2.0761056
0.00010050251 	-0.049542819 	-0.04775148 	2.0761056
0.00012060302 	-0.061182363 	-0.053403038 	2.0670892
0.00014070352 	-0.061182363 	-0.053403038 	2.0670892
0.00016080402 	-0.061182363 	-0.053403038 	2.0670892
0.00018090452 	-0.054945206 	-0.045474109 	2.0532236
0.00020100503 	-0.054945206 	-0.045474109 	2.0532236
0.00022110553 	-0.054945206 	-0.045474109 	2.0532236
0.00024120603 	-0.053653427 	-0.034691782 	2.0729283
0.00026130653 	-0.053653427 	-0.034691782 	2.0729283
0.00028140704 	-0.049475791 	-0.03572999 	2.0714435
0.00030150754 	-0.049475791 	-0.03572999 	2.0714435
0.00032160804 	-0.049475791 	-0.03572999 	2.0714435
0.00034170854 	-0.043237357 	-0.027947506 	2.0741523
0.00036180905 	-0.043237357 	-0.027947506 	2.0741523
0.00038190955 	-0.043237357 	-0.027947506 	2.0741523
0.00040201005 	-0.030803428 	-0.003026831 	2.0337317
0.00042211055 	-0.030803428 	-0.003026831 	2.0337317
0.00044221106 	-0.030803428 	-0.003026831 	2.0337317
0.00046231156 	-0.018432163 	0.014862153 	1.9690559
0.00048241206 	-0.018432163 	0.014862153 	1.9690559
0.00050251256 	-0.019542286 	0.01859708 	1.9436064
0.00052261307 	-0.019542286 	0.01859708 	1.9436064
0.00054271357 	-0.019542286 	0.01859708 	1.9436064
0.00056281407 	-0.010888597 	0.018571251 	1.9209131
0.00058291457 	-0.010888597 	0.018571251 	1.9209131
0.00060301508 	-0.010888597 	0.018571251 	1.9209131
0.00062311558 	-0.015567165 	0.005327182 	1.9168639
0.00064321608 	-0.015567165 	0.005327182 	1.9168639
0.00066331658 	-0.05075548 	-0.0089398705 	1.9189533
0.00068341709 	-0.039825781 	-0.020454712 	1.9325361
0.00070351759 	-0.039825781 	-0.020454712 	1.9325361
0.00072361809 	-0.024432618 	-0.032539037 	1.9560721
0.00074371859 	-0.024432618 	-0.032539037 	1.9560721
0.0007638191 	-0.024432618 	-0.032539037 	1.9560721
0.0007839196 	-0.0088799334 	-0.035282647 	1.982247
0.0008040201 	-0.0088799334 	-0.035282647 	1.982247
0.0008241206 	-0.0088799334 	-0.035282647 	1.982247
0.00084422111 	0.015339725 	-0.03239937 	1.9905536
0.00086432161 	0.015339725 	-0.03239937 	1.9905536
0.00088442211 	0.015339725 	-0.03239937 	1.9905536
0.00090452261 	0.027398056 	-0.036674149 	1.980694
0.00092462312 	0.027398056 	-0.036674149 	1.980694
0.00094472362 	0.046868412 	-0.036153907 	1.9983547
0.00096482412 	0.046868412 	-0.036153907 	1.9983547
0.00098492462 	0.046868412 	-0.036153907 	1.9983547
0.0010050251 	0.048903331 	-0.033048617 	1.987214
0.0010251256 	0.048903331 	-0.033048617 	1.987214
0.0010452261 	0.048903331 	-0.033048617 	1.987214
0.0010653266 	0.067537294 	-0.037779129 	2.0043072
0.0010854271 	0.063717868 	-0.028163669 	2.0076103
0.0011055276 	0.063717868 	-0.028163669 	2.0076103
0.0011256281 	0.06644449 	-0.034298457 	1.9600092
0.0011457286 	0.06644449 	-0.034298457 	1.9600092
0.0011658291 	0.080737412 	-0.04392685 	1.9914742
0.0011859296 	0.096290948 	-0.040717653 	1.9806146
0.0012060302 	0.076598396 	-0.041411001 	1.9496051
0.0012261307 	0.076598396 	-0.041411001 	1.9496051
0.0012462312 	0.059374407 	-0.056468221 	1.941247
0.0012663317 	0.059374407 	-0.056468221 	1.941247
0.0012864322 	0.059374407 	-0.056468221 	1.941247
0.0013065327 	0.061649836 	-0.044878778 	1.9668292
0.0013266332 	0.061649836 	-0.044878778 	1.9668292
0.0013467337 	0.061649836 	-0.044878778 	1.9668292
0.0013668342 	0.055963854 	-0.01121047 	1.9984976
0.0013869347 	0.05942755 	-0.014826602 	2.0081655
0.0014070352 	0.05942755 	-0.014826602 	2.0081655
0.0014271357 	0.054755551 	-0.014255733 	2.0022473
0.0014472362 	0.054755551 	-0.014255733 	2.0022473
0.0014673367 	0.054755551 	-0.014255733 	2.0022473
0.0014874372 	0.057251988 	0.031511952 	2.0280328
0.0015075377 	0.057251988 	0.031511952 	2.0280328
0.0015276382 	0.028372489 	0.015103827 	2.0405404
0.0015477387 	0.028372489 	0.015103827 	2.0405404
0.0015678392 	0.028372489 	0.015103827 	2.0405404
0.0015879397 	0.030188657 	0.0094968167 	1.979325
0.0016080402 	0.030188657 	0.0094968167 	1.979325
0.0016281407 	0.030188657 	0.0094968167 	1.979325
0.0016482412 	0.039895695 	0.0058743418 	1.9890304
0.0016683417 	0.039895695 	0.0058743418 	1.9890304
0.0016884422 	0.046824186 	-0.006136485 	2.0104255
0.0017085427 	0.046824186 	-0.006136485 	2.0104255
0.0017286432 	0.046824186 	-0.006136485 	2.0104255
0.0017487437 	0.050867961 	-0.026654889 	2.0039221
0.0017688442 	0.050867961 	-0.026654889 	2.0039221
0.0017889447 	0.050867961 	-0.026654889 	2.0039221
0.0018090452 	0.051074396 	-0.032000074 	2.0778841
0.0018291457 	0.051074396 	-0.032000074 	2.0778841
0.0018492462 	0.050421032 	-0.030599171 	2.0499061
0.0018693467 	0.050421032 	-0.030599171 	2.0499061
0.0018894472 	0.050421032 	-0.030599171 	2.0499061
0.0019095477 	0.071931619 	-0.024395274 	1.9975375
0.0019296482 	0.071931619 	-0.024395274 	1.9975375
0.0019497487 	0.071865287 	-0.012047665 	1.9585209
0.0019698492 	0.071865287 	-0.012047665 	1.9585209
0.0019899497 	0.080556148 	0.0013154064 	1.935034
0.0020100503 	0.080556148 	0.0013154064 	1.935034
0.0020301508 	0.080556148 	0.0013154064 	1.935034
0.0020502513 	0.075851119 	-0.020762193 	1.9437363
0.0020703518 	0.075851119 	-0.020762193 	1.9437363
0.0020904523 	0.082619095 	-0.031306527 	1.9673875
0.0021105528 	0.082619095 	-0.031306527 	1.9673875
0.0021306533 	0.082619095 	-0.031306527 	1.9673875
0.0021507538 	0.079459889 	-0.0030155701 	2.001759
0.0021708543 	0.079459889 	-0.0030155701 	2.001759
0.0021909548 	0.089077408 	-0.015474473 	2.0083535
0.0022110553 	0.089077408 	-0.015474473 	2.0083535
0.0022311558 	0.088014454 	-0.046377513 	2.0278262
0.0022512563 	0.088014454 	-0.046377513 	2.0278262
0.0022713568 	0.071619652 	-0.026981362 	2.0125267
0.0022914573 	0.071619652 	-0.026981362 	2.0125267
0.0023115578 	0.071619652 	-0.026981362 	2.0125267
0.0023316583 	0.077753204 	-0.007818599 	1.9929461
0.0023517588 	0.077753204 	-0.007818599 	1.9929461
0.0023718593 	0.072698941 	-0.011909265 	2.006644
0.0023919598 	0.072698941 	-0.011909265 	2.006644
0.0024120603 	0.075394555 	-0.0074568404 	1.971028
0.0024321608 	0.075394555 	-0.0074568404 	1.971028
0.0024522613 	0.09942365 	0.0023865662 	1.9319107
0.0024723618 	0.09942365 	0.0023865662 	1.9319107
0.0024924623 	0.097597386 	-0.01108209 	1.9659227
0.0025125628 	0.097597386 	-0.01108209 	1.9659227
0.0025326633 	0.095554421 	0.011843698 	1.970465
0.0025527638 	0.095554421 	0.011843698 	1.970465
0.0025728643 	0.079164543 	0.024782628 	1.9508325
0.0025929648 	0.079164543 	0.024782628 	1.9508325
0.0026130653 	0.03549264 	0.030938803 	1.907585
0.0026331658 	0.03549264 	0.030938803 	1.907585
0.0026532663 	-0.00297174 	0.064197572 	1.9000102
0.0026733668 	-0.00297174 	0.064197572 	1.9000102
0.0026934673 	-0.028150218 	0.072493928 	1.8942126
0.0027135678 	-0.028150218 	0.072493928 	1.8942126
0.0027336683 	-0.040549214 	0.053863083 	1.8942951
0.0027537688 	-0.040549214 	0.053863083 	1.8942951
0.0027738693 	-0.049680002 	0.032983442 	1.885754
0.0027939698 	-0.049680002 	0.032983442 	1.885754
0.0028140704 	-0.041866648 	0.028925825 	1.8920854
0.0028341709 	-0.041866648 	0.028925825 	1.8920854
0.0028542714 	-0.029617419 	-0.011012154 	1.911682
0.0028743719 	-0.013398808 	-0.031594969 	1.9110694
0.0028944724 	-0.013398808 	-0.031594969 	1.9110694
0.0029145729 	-0.0054663042 	-0.021776322 	1.860631
0.0029346734 	-0.0054663042 	-0.021776322 	1.860631
0.0029547739 	0.00087781165 	-0.029756431 	1.7949289
0.0029748744 	0.00087781165 	-0.029756431 	1.7949289
0.0029949749 	-0.0022193185 	-0.032022297 	1.7392618
0.0030150754 	-0.0020424383 	0.0095891575 	1.7751677
0.0030351759 	-0.0020424383 	0.0095891575 	1.7751677
0.0030552764 	-0.0081594275 	0.053806731 	1.8601278
0.0030753769 	-0.0081594275 	0.053806731 	1.8601278
0.0030954774 	-0.016890671 	0.067858591 	1.874396
0.0031155779 	-0.031330445 	0.085970737 	1.8393403
0.0031356784 	-0.031330445 	0.085970737 	1.8393403
0.0031557789 	-0.033756462 	0.097599268 	1.869623
0.0031758794 	-0.033756462 	0.097599268 	1.869623
0.0031959799 	-0.013146327 	0.091778234 	1.8777541
0.0032160804 	-0.012148122 	0.063370634 	1.8705092
0.0032361809 	-0.012148122 	0.063370634 	1.8705092
0.0032562814 	-0.018826595 	0.039472894 	1.8450337
0.0032763819 	-0.014223996 	0.059575434 	1.7778569
0.0032964824 	-0.014223996 	0.059575434 	1.7778569
0.0033165829 	-0.012954236 	0.089071187 	1.7292932
0.0033366834 	-0.0089753114 	0.096347402 	1.7065682
0.0033567839 	-0.0089753114 	0.096347402 	1.7065682
0.0033768844 	-0.0059043982 	0.060156312 	1.6907851
0.0033969849 	0.0006047223 	0.021571353 	1.6519842
0.0034170854 	0.0006047223 	0.021571353 	1.6519842
0.0034371859 	0.0049482703 	0.028601703 	1.5915436
0.0034572864 	0.0055954403 	0.052677825 	1.5743052
0.0034773869 	-0.0009516868 	0.046507435 	1.5918545
0.0034974874 	-0.0009516868 	0.046507435 	1.5918545
0.0035175879 	-0.011811469 	0.0075781319 	1.6142558
0.0035376884 	-0.023795412 	-0.017786742 	1.6552313
0.0035577889 	-0.033295112 	-0.007355832 	1.6785562
0.0035778894 	-0.033295112 	-0.007355832 	1.6785562
0.0035979899 	-0.038313285 	-0.014866511 	1.655813
0.0036180905 	-0.032127347 	-0.018507242 	1.6022684
0.003638191 	-0.017594767 	0.011653652 	1.5246896
0.0036582915 	-0.017594767 	0.011653652 	1.5246896
0.003678392 	-0.0051062771 	-0.017500969 	1.4892937
0.0036984925 	-0.00011924269 	-0.10592905 	1.5100634
0.003718593 	-0.0064649662 	-0.16910606 	1.5836643
0.0037386935 	-0.012427545 	-0.16014557 	1.6486901
0.003758794 	-0.0087290723 	-0.097506701 	1.6311118
0.0037788945 	-0.0087290723 	-0.097506701 	1.6311118
0.003798995 	-0.0059175645 	-0.050689863 	1.6043378
0.0038190955 	-0.012118081 	-0.018391343 	1.543799
0.003839196 	-0.029576936 	0.028133712 	1.4652181
0.0038592965 	-0.04700613 	0.041253142 	1.4209202
0.003879397 	-0.049315573 	0.039975514 	1.4939067
0.0038994975 	-0.054196239 	-0.05395857 	1.5676961
0.003919598 	-0.047276098 	-0.1223915 	1.4842494
0.0039396985 	-0.038625609 	0.15258207 	1.2308403
0.003959799 	-0.007162276 	-0.11050632 	0.69276393
0.0039798995 	-0.019670767 	0.030153394 	0.43754793
0.004 	-0.019670767 	0.030153394 	0.43754793
