0 	0.013468191 	0.035606996 	1.9965914
2.0100503e-05 	0.048787349 	-0.033481093 	1.9560189
4.0201005e-05 	0.048787349 	-0.033481093 	1.9560189
6.0301508e-05 	0.032751888 	-0.068277238 	1.9971383
8.040201e-05 	0.032751888 	-0.068277238 	1.9971383
0.00010050251 	0.032751888 	-0.068277238 	1.9971383
0.00012060302 	0.018022757 	-0.07733421 	2.0093335
0.00014070352 	0.018022757 	-0.07733421 	2.0093335
0.00016080402 	0.018022757 	-0.07733421 	2.0093335
0.00018090452 	0.012283626 	-0.062233022 	2.0267194
0.00020100503 	0.012283626 	-0.062233022 	2.0267194
0.00022110553 	0.012283626 	-0.062233022 	2.0267194
0.00024120603 	0.015795997 	-0.059794952 	1.9849213
0.00026130653 	0.015795997 	-0.059794952 	1.9849213
0.00028140704 	0.021705242 	-0.053418476 	1.9684546
0.00030150754 	0.021705242 	-0.053418476 	1.9684546
0.00032160804 	0.021705242 	-0.053418476 	1.9684546
0.00034170854 	0.020972066 	-0.034191526 	1.9839701
0.00036180905 	0.020972066 	-0.034191526 	1.9839701
0.00038190955 	0.020972066 	-0.034191526 	1.9839701
0.00040201005 	0.021042367 	-0.015682227 	1.995845
0.00042211055 	0.021042367 	-0.015682227 	1.995845
0.00044221106 	0.021042367 	-0.015682227 	1.995845
0.00046231156 	0.033258689 	-0.0015868997 	2.0257962
0.00048241206 	0.033258689 	-0.0015868997 	2.0257962
0.00050251256 	0.048453764 	-0.00053342431 	2.0236622
0.00052261307 	0.048453764 	-0.00053342431 	2.0236622
0.00054271357 	0.048453764 	-0.00053342431 	2.0236622
0.00056281407 	0.059930211 	0.010127224 	2.0156895
0.00058291457 	0.059930211 	0.010127224 	2.0156895
0.00060301508 	0.059930211 	0.010127224 	2.0156895
0.00062311558 	0.060371398 	0.025010284 	2.0248102
0.00064321608 	0.060371398 	0.025010284 	2.0248102
0.00066331658 	0.060371398 	0.025010284 	2.0248102
0.00068341709 	0.055316458 	0.034496825 	2.0352402
0.00070351759 	0.055316458 	0.034496825 	2.0352402
0.00072361809 	0.040476411 	0.046898546 	2.0195671
0.00074371859 	0.040476411 	0.046898546 	2.0195671
0.0007638191 	0.040476411 	0.046898546 	2.0195671
0.0007839196 	0.045721239 	0.049714886 	2.0563659
0.0008040201 	0.045721239 	0.049714886 	2.0563659
0.0008241206 	0.045721239 	0.049714886 	2.0563659
0.00084422111 	0.033459035 	0.057492657 	2.0737436
0.00086432161 	0.033459035 	0.057492657 	2.0737436
0.00088442211 	0.033459035 	0.057492657 	2.0737436
0.00090452261 	0.03778745 	0.063124364 	2.0901973
0.00092462312 	0.03778745 	0.063124364 	2.0901973
0.00094472362 	0.047479135 	0.071529699 	2.0901567
0.00096482412 	0.047479135 	0.071529699 	2.0901567
0.00098492462 	0.047479135 	0.071529699 	2.0901567
0.0010050251 	0.05416292 	0.066931403 	2.0879895
0.0010251256 	0.05416292 	0.066931403 	2.0879895
0.0010452261 	0.05416292 	0.066931403 	2.0879895
0.0010653266 	0.050514581 	0.039311835 	2.0933557
0.0010854271 	0.050514581 	0.039311835 	2.0933557
0.0011055276 	0.047621809 	0.04804482 	2.1180947
0.0011256281 	0.031492375 	0.039839415 	2.1058849
0.0011457286 	0.041975037 	0.01619148 	2.0922724
0.0011658291 	0.041975037 	0.01619148 	2.0922724
0.0011859296 	0.033386164 	0.021346436 	2.0815642
0.0012060302 	0.033386164 	0.021346436 	2.0815642
0.0012261307 	0.033386164 	0.021346436 	2.0815642
0.0012462312 	0.031376552 	0.021736191 	2.0787891
0.0012663317 	0.031376552 	0.021736191 	2.0787891
0.0012864322 	0.031376552 	0.021736191 	2.0787891
0.0013065327 	0.037161786 	0.013704349 	2.0678041
0.0013266332 	0.037161786 	0.013704349 	2.0678041
0.0013467337 	0.037161786 	0.013704349 	2.0678041
0.0013668342 	0.02412265 	0.0039999671 	2.0414559
0.0013869347 	0.02412265 	0.0039999671 	2.0414559
0.0014070352 	0.02412265 	0.0039999671 	2.0414559
0.0014271357 	0.013009132 	-0.0052831492 	2.0256618
0.0014472362 	0.013009132 	-0.0052831492 	2.0256618
0.0014673367 	0.013009132 	-0.0052831492 	2.0256618
0.0014874372 	0.0096117187 	-0.039052297 	1.9766136
0.0015075377 	0.0096117187 	-0.039052297 	1.9766136
0.0015276382 	0.0089665425 	-0.055302539 	1.9406998
0.0015477387 	0.0089665425 	-0.055302539 	1.9406998
0.0015678392 	0.0089665425 	-0.055302539 	1.9406998
0.0015879397 	0.0073652416 	-0.057642307 	1.8828103
0.0016080402 	0.0073652416 	-0.057642307 	1.8828103
0.0016281407 	0.0073652416 	-0.057642307 	1.8828103
0.0016482412 	-0.018204168 	-0.094215883 	1.9576153
0.0016683417 	-0.018204168 	-0.094215883 	1.9576153
0.0016884422 	-0.042909765 	-0.11015394 	2.0087911
0.0017085427 	-0.042909765 	-0.11015394 	2.0087911
0.0017286432 	-0.042909765 	-0.11015394 	2.0087911
0.0017487437 	-0.064400722 	-0.048163881 	1.9295064
0.0017688442 	-0.064400722 	-0.048163881 	1.9295064
0.0017889447 	-0.064400722 	-0.048163881 	1.9295064
0.0018090452 	-0.077187154 	-0.031048797 	1.9478839
0.0018291457 	-0.077187154 	-0.031048797 	1.9478839
0.0018492462 	-0.055691225 	-0.034415773 	1.9819577
0.0018693467 	-0.055691225 	-0.034415773 	1.9819577
0.0018894472 	-0.055691225 	-0.034415773 	1.9819577
0.0019095477 	-0.036644569 	-0.036300722 	1.9442895
0.0019296482 	-0.036644569 	-0.036300722 	1.9442895
0.0019497487 	-0.020765828 	-0.035738947 	1.9313704
0.0019698492 	-0.020765828 	-0.035738947 	1.9313704
0.0019899497 	-0.020765828 	-0.035738947 	1.9313704
0.0020100503 	-0.026721928 	-0.026449704 	1.9134565
0.0020301508 	-0.026721928 	-0.026449704 	1.9134565
0.0020502513 	-0.028645763 	-0.039432143 	1.9144039
0.0020703518 	-0.028645763 	-0.039432143 	1.9144039
0.0020904523 	-0.028564763 	-0.044114507 	1.8591095
0.0021105528 	-0.028564763 	-0.044114507 	1.8591095
0.0021306533 	-0.028564763 	-0.044114507 	1.8591095
0.0021507538 	-0.023023818 	-0.063855345 	1.8608143
0.0021708543 	-0.023023818 	-0.063855345 	1.8608143
0.0021909548 	-0.0077998713 	-0.071986818 	1.8727069
0.0022110553 	-0.0077998713 	-0.071986818 	1.8727069
0.0022311558 	0.006721486 	-0.053204992 	1.8627549
0.0022512563 	0.006721486 	-0.053204992 	1.8627549
0.0022713568 	0.0038610643 	-0.045316978 	1.9115783
0.0022914573 	0.0038610643 	-0.045316978 	1.9115783
0.0023115578 	0.0038610643 	-0.045316978 	1.9115783
0.0023316583 	0.0027796721 	-0.045740174 	1.941615
0.0023517588 	0.0027796721 	-0.045740174 	1.941615
0.0023718593 	0.015351655 	-0.019460364 	1.9463887
0.0023919598 	0.015351655 	-0.019460364 	1.9463887
0.0024120603 	0.034643307 	-0.011998058 	1.9290001
0.0024321608 	0.034643307 	-0.011998058 	1.9290001
0.0024522613 	0.04005162 	-0.02439242 	1.9268016
0.0024723618 	0.04005162 	-0.02439242 	1.9268016
0.0024924623 	0.043237039 	-0.0011977505 	1.9083029
0.0025125628 	0.043237039 	-0.0011977505 	1.9083029
0.0025326633 	0.050764923 	0.018011705 	1.885431
0.0025527638 	0.050764923 	0.018011705 	1.885431
0.0025728643 	0.053537247 	0.021678537 	1.90154
0.0025929648 	0.053537247 	0.021678537 	1.90154
0.0026130653 	0.056745613 	0.014246192 	1.9305274
0.0026331658 	0.056745613 	0.014246192 	1.9305274
0.0026532663 	0.051135359 	0.010627147 	1.9047771
0.0026733668 	0.051135359 	0.010627147 	1.9047771
0.0026934673 	0.049675033 	0.0074273333 	1.8544326
0.0027135678 	0.049675033 	0.0074273333 	1.8544326
0.0027336683 	0.057321651 	-0.0022458796 	1.8633941
0.0027537688 	0.057321651 	-0.0022458796 	1.8633941
0.0027738693 	0.055889431 	-0.020629908 	1.8764299
0.0027939698 	0.055889431 	-0.020629908 	1.8764299
0.0028140704 	0.055483486 	-0.030201274 	1.858177
0.0028341709 	0.055483486 	-0.030201274 	1.858177
0.0028542714 	0.052535007 	-0.02187231 	1.863691
0.0028743719 	0.047327668 	-0.0062985311 	1.8854014
0.0028944724 	0.047327668 	-0.0062985311 	1.8854014
0.0029145729 	0.045479606 	0.002273061 	1.8642764
0.0029346734 	0.045479606 	0.002273061 	1.8642764
0.0029547739 	0.034759727 	0.053407525 	1.7971403
0.0029748744 	0.034759727 	0.053407525 	1.7971403
0.0029949749 	0.035421172 	0.10629601 	1.7750783
0.0030150754 	0.031982777 	0.11367667 	1.7569309
0.0030351759 	0.031982777 	0.11367667 	1.7569309
0.0030552764 	0.017295083 	0.11830098 	1.7052381
0.0030753769 	0.017295083 	0.11830098 	1.7052381
0.0030954774 	0.015021043 	0.096343771 	1.698469
0.0031155779 	-0.0038899944 	0.069605816 	1.7617506
0.0031356784 	-0.0038899944 	0.069605816 	1.7617506
0.0031557789 	-0.012402318 	0.03542848 	1.7703364
0.0031758794 	-0.012402318 	0.03542848 	1.7703364
0.0031959799 	-0.027892464 	0.03323432 	1.7283104
0.0032160804 	-0.055079566 	0.056069602 	1.6282696
0.0032361809 	-0.055079566 	0.056069602 	1.6282696
0.0032562814 	-0.072692356 	0.080773614 	1.5776721
0.0032763819 	-0.08672569 	0.069351511 	1.6448643
0.0032964824 	-0.08672569 	0.069351511 	1.6448643
0.0033165829 	-0.10948996 	0.076246821 	1.6815508
0.0033366834 	-0.11718196 	0.084327638 	1.6987605
0.0033567839 	-0.11718196 	0.084327638 	1.6987605
0.0033768844 	-0.12247239 	0.072990407 	1.7173684
0.0033969849 	-0.11348333 	0.08187813 	1.6930929
0.0034170854 	-0.11348333 	0.08187813 	1.6930929
0.0034371859 	-0.12333212 	0.10152704 	1.6931689
0.0034572864 	-0.12998252 	0.10766282 	1.6823074
0.0034773869 	-0.1272178 	0.095283845 	1.6529608
0.0034974874 	-0.1272178 	0.095283845 	1.6529608
0.0035175879 	-0.11765627 	0.069215744 	1.6538713
0.0035376884 	-0.10727104 	0.023020533 	1.6764102
0.0035577889 	-0.10713665 	0.013423893 	1.7154058
0.0035778894 	-0.10713665 	0.013423893 	1.7154058
0.0035979899 	-0.11321188 	0.018067128 	1.6895105
0.0036180905 	-0.1165917 	0.015512981 	1.6336015
0.003638191 	-0.11926596 	-0.012672777 	1.6270693
0.0036582915 	-0.11926596 	-0.012672777 	1.6270693
0.003678392 	-0.10903919 	-0.0054190307 	1.6459096
0.0036984925 	-0.11227737 	0.027462179 	1.6904351
0.003718593 	-0.11168885 	-0.006076038 	1.6911855
0.0037386935 	-0.10972702 	-0.022428153 	1.6311746
0.003758794 	-0.070564358 	0.039238708 	1.4576455
0.0037788945 	-0.070564358 	0.039238708 	1.4576455
0.003798995 	-0.077018043 	0.0017570929 	1.5148156
0.0038190955 	-0.08491665 	-0.18956419 	1.5763905
0.003839196 	-0.094521477 	-0.30649892 	1.4438982
0.0038592965 	-0.097587105 	-0.325506 	1.3856604
0.003879397 	-0.10045925 	-0.33739253 	1.3281276
0.0038994975 	-0.079578657 	-0.26769183 	1.196233
0.003919598 	-0.082645189 	-0.06356871 	1.145754
0.0039396985 	-0.011550234 	0.16697277 	0.7631147
0.003959799 	-0.059024472 	-0.078749636 	0.58435242
0.0039798995 	0.0048401247 	0.09078637 	0.19515181
0.004 	0.0048401247 	0.09078637 	0.19515181
