0 	-0.021774452 	-0.022132867 	2.0969928
2.0100503e-05 	-0.021774452 	-0.022132867 	2.0969928
4.0201005e-05 	-0.021774452 	-0.022132867 	2.0969928
6.0301508e-05 	-0.0063661084 	-0.016297715 	2.115099
8.040201e-05 	-0.0063661084 	-0.016297715 	2.115099
0.00010050251 	-0.0063661084 	-0.016297715 	2.115099
0.00012060302 	0.00065094134 	-0.0079162365 	2.1171224
0.00014070352 	0.00065094134 	-0.0079162365 	2.1171224
0.00016080402 	0.00065094134 	-0.0079162365 	2.1171224
0.00018090452 	0.0021075533 	-0.0083306093 	2.1249708
0.00020100503 	0.0021075533 	-0.0083306093 	2.1249708
0.00022110553 	0.0021075533 	-0.0083306093 	2.1249708
0.00024120603 	0.0111376 	0.0048331865 	2.1163635
0.00026130653 	0.0111376 	0.0048331865 	2.1163635
0.00028140704 	0.01702694 	0.009639803 	2.0851718
0.00030150754 	0.01702694 	0.009639803 	2.0851718
0.00032160804 	0.01702694 	0.009639803 	2.0851718
0.00034170854 	0.014173578 	0.014540323 	2.070727
0.00036180905 	0.014173578 	0.014540323 	2.070727
0.00038190955 	0.014173578 	0.014540323 	2.070727
0.00040201005 	0.011215601 	0.014745253 	2.0774478
0.00042211055 	0.011215601 	0.014745253 	2.0774478
0.00044221106 	0.011215601 	0.014745253 	2.0774478
0.00046231156 	0.0046251663 	0.018123698 	2.0869135
0.00048241206 	0.0046251663 	0.018123698 	2.0869135
0.00050251256 	-0.0032709096 	0.0242899 	2.0645216
0.00052261307 	-0.0032709096 	0.0242899 	2.0645216
0.00054271357 	-0.0032709096 	0.0242899 	2.0645216
0.00056281407 	-0.0053387234 	0.018273676 	2.0624848
0.00058291457 	-0.0053387234 	0.018273676 	2.0624848
0.00060301508 	-0.0053387234 	0.018273676 	2.0624848
0.00062311558 	0.0062798471 	0.0072012677 	2.0652921
0.00064321608 	0.0062798471 	0.0072012677 	2.0652921
0.00066331658 	4.9871376e-06 	0.014722711 	2.0467299
0.00068341709 	0.0089401634 	0.0008208985 	2.0217365
0.00070351759 	0.0089401634 	0.0008208985 	2.0217365
0.00072361809 	0.0096320575 	-0.0031729743 	2.0280942
0.00074371859 	0.0096320575 	-0.0031729743 	2.0280942
0.0007638191 	0.0096320575 	-0.0031729743 	2.0280942
0.0007839196 	0.016255752 	-0.017878109 	2.033431
0.0008040201 	0.016255752 	-0.017878109 	2.033431
0.0008241206 	0.020586877 	-0.022449675 	2.0471491
0.00084422111 	0.016878104 	-0.025714069 	2.0515912
0.00086432161 	0.016878104 	-0.025714069 	2.0515912
0.00088442211 	0.016878104 	-0.025714069 	2.0515912
0.00090452261 	0.016383977 	-0.026043244 	2.0390718
0.00092462312 	0.016383977 	-0.026043244 	2.0390718
0.00094472362 	0.024259234 	-0.032349501 	2.0118674
0.00096482412 	0.024259234 	-0.032349501 	2.0118674
0.00098492462 	0.024259234 	-0.032349501 	2.0118674
0.0010050251 	0.029130944 	-0.028050922 	1.9862857
0.0010251256 	0.029130944 	-0.028050922 	1.9862857
0.0010452261 	0.029130944 	-0.028050922 	1.9862857
0.0010653266 	0.026049156 	-0.012044409 	1.9904019
0.0010854271 	0.026049156 	-0.012044409 	1.9904019
0.0011055276 	0.026049156 	-0.012044409 	1.9904019
0.0011256281 	0.024359738 	0.0020755105 	2.0197001
0.0011457286 	0.024359738 	0.0020755105 	2.0197001
0.0011658291 	0.014455055 	-0.00082548729 	2.0213574
0.0011859296 	0.01518541 	0.0040648139 	2.0232356
0.0012060302 	0.03035226 	0.0049138422 	2.0316697
0.0012261307 	0.03035226 	0.0049138422 	2.0316697
0.0012462312 	0.017124015 	0.0055139102 	2.0289841
0.0012663317 	0.017124015 	0.0055139102 	2.0289841
0.0012864322 	0.017124015 	0.0055139102 	2.0289841
0.0013065327 	0.016249656 	-0.0043873187 	2.0114167
0.0013266332 	0.016249656 	-0.0043873187 	2.0114167
0.0013467337 	0.016249656 	-0.0043873187 	2.0114167
0.0013668342 	0.015547957 	-0.034554036 	2.0077897
0.0013869347 	0.015547957 	-0.034554036 	2.0077897
0.0014070352 	0.015547957 	-0.034554036 	2.0077897
0.0014271357 	0.025729897 	-0.043040802 	1.9895885
0.0014472362 	0.025729897 	-0.043040802 	1.9895885
0.0014673367 	0.025729897 	-0.043040802 	1.9895885
0.0014874372 	0.0088835985 	-0.03001388 	1.9666829
0.0015075377 	0.0088835985 	-0.03001388 	1.9666829
0.0015276382 	-0.0068534951 	-0.047955926 	1.9855128
0.0015477387 	-0.0068534951 	-0.047955926 	1.9855128
0.0015678392 	-0.0068534951 	-0.047955926 	1.9855128
0.0015879397 	-0.010006839 	-0.052735493 	1.9922303
0.0016080402 	-0.010006839 	-0.052735493 	1.9922303
0.0016281407 	-0.010006839 	-0.052735493 	1.9922303
0.0016482412 	-0.018555367 	-0.055305131 	1.9930491
0.0016683417 	-0.018555367 	-0.055305131 	1.9930491
0.0016884422 	-0.0074848204 	-0.060663206 	1.9190736
0.0017085427 	-0.0074848204 	-0.060663206 	1.9190736
0.0017286432 	-0.0074848204 	-0.060663206 	1.9190736
0.0017487437 	-0.0048322513 	-0.088832698 	1.9260362
0.0017688442 	-0.0048322513 	-0.088832698 	1.9260362
0.0017889447 	-0.0048322513 	-0.088832698 	1.9260362
0.0018090452 	-0.011817446 	-0.067799303 	1.9272969
0.0018291457 	-0.011817446 	-0.067799303 	1.9272969
0.0018492462 	-0.036621267 	-0.012849899 	1.9306219
0.0018693467 	-0.036621267 	-0.012849899 	1.9306219
0.0018894472 	-0.036621267 	-0.012849899 	1.9306219
0.0019095477 	-0.040886773 	-0.01153623 	1.9239569
0.0019296482 	-0.040886773 	-0.01153623 	1.9239569
0.0019497487 	-0.038735206 	-0.02866563 	1.8448437
0.0019698492 	-0.038735206 	-0.02866563 	1.8448437
0.0019899497 	-0.035687096 	-0.031031888 	1.8742357
0.0020100503 	-0.035687096 	-0.031031888 	1.8742357
0.0020301508 	-0.035687096 	-0.031031888 	1.8742357
0.0020502513 	-0.025376371 	-0.037590162 	1.8772036
0.0020703518 	-0.025376371 	-0.037590162 	1.8772036
0.0020904523 	-0.016971036 	0.0090513501 	1.8645
0.0021105528 	-0.016971036 	0.0090513501 	1.8645
0.0021306533 	-0.016971036 	0.0090513501 	1.8645
0.0021507538 	-0.0042594314 	0.0088157246 	1.8943774
0.0021708543 	-0.0042594314 	0.0088157246 	1.8943774
0.0021909548 	0.010961122 	0.020982679 	1.8721711
0.0022110553 	0.010961122 	0.020982679 	1.8721711
0.0022311558 	0.01932401 	0.028089548 	1.8836997
0.0022512563 	0.01932401 	0.028089548 	1.8836997
0.0022713568 	0.011087181 	0.021804528 	1.8788053
0.0022914573 	0.011087181 	0.021804528 	1.8788053
0.0023115578 	0.011087181 	0.021804528 	1.8788053
0.0023316583 	0.031265022 	-0.0098364627 	1.9217072
0.0023517588 	0.031265022 	-0.0098364627 	1.9217072
0.0023718593 	0.062197553 	-0.006458006 	1.9159876
0.0023919598 	0.062197553 	-0.006458006 	1.9159876
0.0024120603 	0.075382031 	-0.030152868 	1.9228511
0.0024321608 	0.075382031 	-0.030152868 	1.9228511
0.0024522613 	0.094646457 	-0.049498754 	1.93964
0.0024723618 	0.094646457 	-0.049498754 	1.93964
0.0024924623 	0.099944413 	-0.037729607 	1.9244587
0.0025125628 	0.099944413 	-0.037729607 	1.9244587
0.0025326633 	0.12767976 	-0.02972731 	1.9187943
0.0025527638 	0.12767976 	-0.02972731 	1.9187943
0.0025728643 	0.13454275 	-0.05706396 	1.9008148
0.0025929648 	0.13454275 	-0.05706396 	1.9008148
0.0026130653 	0.15231212 	-0.075388483 	1.9516032
0.0026331658 	0.15231212 	-0.075388483 	1.9516032
0.0026532663 	0.12597179 	-0.088994308 	2.010241
0.0026733668 	0.12597179 	-0.088994308 	2.010241
0.0026934673 	0.093483225 	-0.069141794 	2.0211742
0.0027135678 	0.093483225 	-0.069141794 	2.0211742
0.0027336683 	0.071129784 	-0.059140111 	1.9528569
0.0027537688 	0.071129784 	-0.059140111 	1.9528569
0.0027738693 	0.061276029 	-0.036476257 	1.9303419
0.0027939698 	0.061276029 	-0.036476257 	1.9303419
0.0028140704 	0.069529756 	-0.03847866 	1.8829265
0.0028341709 	0.069529756 	-0.03847866 	1.8829265
0.0028542714 	0.066523223 	-0.039923185 	1.8676256
0.0028743719 	0.084977306 	-0.0015098041 	1.9093601
0.0028944724 	0.084977306 	-0.0015098041 	1.9093601
0.0029145729 	0.089495163 	0.011174506 	1.8641499
0.0029346734 	0.089495163 	0.011174506 	1.8641499
0.0029547739 	0.10877922 	0.041049964 	1.8849721
0.0029748744 	0.10877922 	0.041049964 	1.8849721
0.0029949749 	0.11771715 	0.077170339 	1.8537304
0.0030150754 	0.14072407 	0.098768459 	1.870741
0.0030351759 	0.14072407 	0.098768459 	1.870741
0.0030552764 	0.15613005 	0.083754128 	1.8309565
0.0030753769 	0.15613005 	0.083754128 	1.8309565
0.0030954774 	0.1734394 	0.078394624 	1.7713694
0.0031155779 	0.16997474 	0.087688923 	1.7725523
0.0031356784 	0.16997474 	0.087688923 	1.7725523
0.0031557789 	0.16529807 	0.10019703 	1.7805518
0.0031758794 	0.16529807 	0.10019703 	1.7805518
0.0031959799 	0.16052209 	0.13049371 	1.8260215
0.0032160804 	0.1429552 	0.10787943 	1.8648382
0.0032361809 	0.1429552 	0.10787943 	1.8648382
0.0032562814 	0.12876956 	0.030540157 	1.8682706
0.0032763819 	0.12045421 	-0.020885985 	1.8525792
0.0032964824 	0.12045421 	-0.020885985 	1.8525792
0.0033165829 	0.11977268 	-0.00667932 	1.8829121
0.0033366834 	0.1143931 	0.0092474459 	1.9214806
0.0033567839 	0.1143931 	0.0092474459 	1.9214806
0.0033768844 	0.10286672 	0.0088471123 	1.9195435
0.0033969849 	0.094703347 	0.066600145 	1.8706626
0.0034170854 	0.094703347 	0.066600145 	1.8706626
0.0034371859 	0.087382089 	0.12798313 	1.8322799
0.0034572864 	0.069667089 	0.12482908 	1.7542576
0.0034773869 	0.057419649 	0.072040778 	1.6958306
0.0034974874 	0.057419649 	0.072040778 	1.6958306
0.0035175879 	0.057324921 	0.079766197 	1.6925589
0.0035376884 	0.04679341 	0.13309789 	1.6908774
0.0035577889 	0.044261589 	0.20390163 	1.7520611
0.0035778894 	0.044261589 	0.20390163 	1.7520611
0.0035979899 	0.038111021 	0.22428355 	1.7035918
0.0036180905 	0.039808802 	0.21848431 	1.5930894
0.003638191 	0.046684014 	0.20675662 	1.5337119
0.0036582915 	0.046684014 	0.20675662 	1.5337119
0.003678392 	0.056664063 	0.22191047 	1.5143276
0.0036984925 	0.072492815 	0.23534503 	1.4954908
0.003718593 	0.067323571 	0.28860336 	1.4845521
0.0037386935 	0.027151402 	0.31555266 	1.5639769
0.003758794 	-0.016429751 	0.1767965 	1.7001975
0.0037788945 	-0.016429751 	0.1767965 	1.7001975
0.003798995 	-0.047046813 	-0.03803079 	1.735147
0.0038190955 	-0.052891423 	-0.1686118 	1.7630949
0.003839196 	-0.049596205 	-0.19311084 	1.8030333
0.0038592965 	-0.060056166 	-0.20047519 	1.7362098
0.003879397 	-0.08304857 	-0.18678991 	1.617406
0.0038994975 	-0.07406501 	-0.1712755 	1.5536037
0.003919598 	-0.1001261 	-0.20993894 	1.4461042
0.0039396985 	-0.1003861 	-0.26252807 	1.4792977
0.003959799 	-0.040028309 	-0.13215981 	0.92490209
0.0039798995 	-0.011074711 	-0.21917241 	0.49858229
0.004 	-0.011074711 	-0.21917241 	0.49858229
