0 	-0.01356973 	-0.028350273 	2.0790742
2.0100503e-05 	-0.042341039 	0.018796964 	2.0550041
4.0201005e-05 	-0.042341039 	0.018796964 	2.0550041
6.0301508e-05 	-0.031256624 	0.0272807 	2.0292631
8.040201e-05 	-0.031256624 	0.0272807 	2.0292631
0.00010050251 	-0.031256624 	0.0272807 	2.0292631
0.00012060302 	-0.03959338 	0.015320694 	2.0358393
0.00014070352 	-0.03959338 	0.015320694 	2.0358393
0.00016080402 	-0.03959338 	0.015320694 	2.0358393
0.00018090452 	-0.037962648 	-9.3778227e-05 	2.0403019
0.00020100503 	-0.037962648 	-9.3778227e-05 	2.0403019
0.00022110553 	-0.037962648 	-9.3778227e-05 	2.0403019
0.00024120603 	-0.038229486 	-0.014180067 	2.0451053
0.00026130653 	-0.038229486 	-0.014180067 	2.0451053
0.00028140704 	-0.031755927 	-0.02682219 	2.0374381
0.00030150754 	-0.031755927 	-0.02682219 	2.0374381
0.00032160804 	-0.031755927 	-0.02682219 	2.0374381
0.00034170854 	-0.043465153 	-0.028651937 	2.0323424
0.00036180905 	-0.043465153 	-0.028651937 	2.0323424
0.00038190955 	-0.043465153 	-0.028651937 	2.0323424
0.00040201005 	-0.038064505 	-0.032890503 	2.0119996
0.00042211055 	-0.038064505 	-0.032890503 	2.0119996
0.00044221106 	-0.038064505 	-0.032890503 	2.0119996
0.00046231156 	-0.03449677 	-0.032799536 	1.9862189
0.00048241206 	-0.03449677 	-0.032799536 	1.9862189
0.00050251256 	-0.037445389 	-0.013224172 	1.9848854
0.00052261307 	-0.037445389 	-0.013224172 	1.9848854
0.00054271357 	-0.037445389 	-0.013224172 	1.9848854
0.00056281407 	-0.037118113 	0.0052626819 	1.9946222
0.00058291457 	-0.037118113 	0.0052626819 	1.9946222
0.00060301508 	-0.037118113 	0.0052626819 	1.9946222
0.00062311558 	-0.042040596 	0.014555739 	2.0097439
0.00064321608 	-0.042040596 	0.014555739 	2.0097439
0.00066331658 	-0.042040596 	0.014555739 	2.0097439
0.00068341709 	-0.049174034 	0.024632612 	2.017627
0.00070351759 	-0.049174034 	0.024632612 	2.017627
0.00072361809 	-0.056983951 	0.046327299 	2.0144185
0.00074371859 	-0.056983951 	0.046327299 	2.0144185
0.0007638191 	-0.056983951 	0.046327299 	2.0144185
0.0007839196 	-0.050624693 	0.054381223 	2.0296157
0.0008040201 	-0.050624693 	0.054381223 	2.0296157
0.0008241206 	-0.050624693 	0.054381223 	2.0296157
0.00084422111 	-0.031259951 	0.032784952 	2.0128605
0.00086432161 	-0.031259951 	0.032784952 	2.0128605
0.00088442211 	-0.031259951 	0.032784952 	2.0128605
0.00090452261 	-0.013454982 	0.0087241069 	1.9822374
0.00092462312 	-0.013454982 	0.0087241069 	1.9822374
0.00094472362 	-0.015983267 	0.0042562643 	1.9951805
0.00096482412 	-0.015983267 	0.0042562643 	1.9951805
0.00098492462 	-0.015983267 	0.0042562643 	1.9951805
0.0010050251 	0.0031112996 	-0.0092253073 	2.0110571
0.0010251256 	0.0031112996 	-0.0092253073 	2.0110571
0.0010452261 	0.0031112996 	-0.0092253073 	2.0110571
0.0010653266 	-0.0035137299 	-0.011280665 	2.0574403
0.0010854271 	-0.0035137299 	-0.011280665 	2.0574403
0.0011055276 	0.01088911 	-0.018633582 	2.0462128
0.0011256281 	-0.0099601418 	-0.019715104 	2.0736778
0.0011457286 	-0.0099601418 	-0.019715104 	2.0736778
0.0011658291 	-0.0099601418 	-0.019715104 	2.0736778
0.0011859296 	-0.019536376 	-0.025173799 	2.0887055
0.0012060302 	-0.019117758 	-0.049295305 	2.1120599
0.0012261307 	-0.019117758 	-0.049295305 	2.1120599
0.0012462312 	-0.037706714 	-0.061173086 	2.0993574
0.0012663317 	-0.037706714 	-0.061173086 	2.0993574
0.0012864322 	-0.037706714 	-0.061173086 	2.0993574
0.0013065327 	-0.037537871 	-0.061228371 	1.9935771
0.0013266332 	-0.037537871 	-0.061228371 	1.9935771
0.0013467337 	-0.0573014 	-0.02937992 	2.0312823
0.0013668342 	-0.069237793 	-0.009713055 	1.9063937
0.0013869347 	-0.069237793 	-0.009713055 	1.9063937
0.0014070352 	-0.069237793 	-0.009713055 	1.9063937
0.0014271357 	-0.065402448 	-0.0049945094 	1.8707
0.0014472362 	-0.065402448 	-0.0049945094 	1.8707
0.0014673367 	-0.065402448 	-0.0049945094 	1.8707
0.0014874372 	-0.022532082 	-0.0057060575 	1.9650979
0.0015075377 	-0.022532082 	-0.0057060575 	1.9650979
0.0015276382 	-0.0051207726 	0.014522633 	2.0062325
0.0015477387 	-0.0051207726 	0.014522633 	2.0062325
0.0015678392 	-0.0051207726 	0.014522633 	2.0062325
0.0015879397 	-0.0032035994 	0.026057799 	1.9599678
0.0016080402 	-0.0032035994 	0.026057799 	1.9599678
0.0016281407 	-0.0032035994 	0.026057799 	1.9599678
0.0016482412 	0.024926178 	0.010900227 	1.9628234
0.0016683417 	0.024926178 	0.010900227 	1.9628234
0.0016884422 	0.026627394 	0.038787173 	1.9982514
0.0017085427 	0.026627394 	0.038787173 	1.9982514
0.0017286432 	0.026627394 	0.038787173 	1.9982514
0.0017487437 	0.02049916 	0.038406121 	1.9759434
0.0017688442 	0.02049916 	0.038406121 	1.9759434
0.0017889447 	0.02049916 	0.038406121 	1.9759434
0.0018090452 	0.029371808 	0.0054781475 	1.9231972
0.0018291457 	0.029371808 	0.0054781475 	1.9231972
0.0018492462 	0.026618438 	-0.00024292106 	1.9676904
0.0018693467 	0.026618438 	-0.00024292106 	1.9676904
0.0018894472 	0.026618438 	-0.00024292106 	1.9676904
0.0019095477 	0.041058398 	0.00037482191 	2.0744493
0.0019296482 	0.041058398 	0.00037482191 	2.0744493
0.0019497487 	0.043639356 	-0.027537716 	1.9830414
0.0019698492 	0.043639356 	-0.027537716 	1.9830414
0.0019899497 	0.057266537 	-0.043063996 	1.9836295
0.0020100503 	0.057266537 	-0.043063996 	1.9836295
0.0020301508 	0.057266537 	-0.043063996 	1.9836295
0.0020502513 	0.060025294 	-0.056703677 	2.0253232
0.0020703518 	0.060025294 	-0.056703677 	2.0253232
0.0020904523 	0.029208747 	-0.067613078 	1.980226
0.0021105528 	0.029208747 	-0.067613078 	1.980226
0.0021306533 	0.029208747 	-0.067613078 	1.980226
0.0021507538 	0.035242041 	-0.032711996 	2.0173292
0.0021708543 	0.035242041 	-0.032711996 	2.0173292
0.0021909548 	0.041141991 	-0.02177481 	1.9823286
0.0022110553 	0.041141991 	-0.02177481 	1.9823286
0.0022311558 	0.047487146 	-0.01656064 	2.0005808
0.0022512563 	0.047487146 	-0.01656064 	2.0005808
0.0022713568 	0.037336455 	-0.028001471 	1.9593973
0.0022914573 	0.037336455 	-0.028001471 	1.9593973
0.0023115578 	0.037336455 	-0.028001471 	1.9593973
0.0023316583 	0.05192165 	-0.031904673 	1.9142442
0.0023517588 	0.05192165 	-0.031904673 	1.9142442
0.0023718593 	0.04466595 	-0.0056144218 	1.8806403
0.0023919598 	0.04466595 	-0.0056144218 	1.8806403
0.0024120603 	0.033590904 	0.0062222271 	1.8452142
0.0024321608 	0.033590904 	0.0062222271 	1.8452142
0.0024522613 	0.024069543 	-0.015806809 	1.8433698
0.0024723618 	0.024069543 	-0.015806809 	1.8433698
0.0024924623 	0.0098685719 	-0.0034515159 	1.8298086
0.0025125628 	0.0098685719 	-0.0034515159 	1.8298086
0.0025326633 	-0.0088381117 	0.016381843 	1.8106584
0.0025527638 	-0.0088381117 	0.016381843 	1.8106584
0.0025728643 	-0.015702296 	0.020667932 	1.7743802
0.0025929648 	-0.015702296 	0.020667932 	1.7743802
0.0026130653 	-0.00598695 	-0.012629071 	1.7490876
0.0026331658 	-0.00598695 	-0.012629071 	1.7490876
0.0026532663 	-0.00050500468 	-0.0060135077 	1.742071
0.0026733668 	-0.00050500468 	-0.0060135077 	1.742071
0.0026934673 	0.0020403178 	-0.0032556817 	1.723202
0.0027135678 	0.0020403178 	-0.0032556817 	1.723202
0.0027336683 	0.0047194344 	-0.0096336293 	1.7211123
0.0027537688 	0.0047194344 	-0.0096336293 	1.7211123
0.0027738693 	0.0071962557 	0.015234067 	1.8018001
0.0027939698 	0.0071962557 	0.015234067 	1.8018001
0.0028140704 	-0.0010911657 	0.0056600097 	1.875001
0.0028341709 	-0.0010911657 	0.0056600097 	1.875001
0.0028542714 	-0.01792226 	-0.032168374 	1.8173802
0.0028743719 	-0.012787437 	-0.0062946423 	1.782104
0.0028944724 	-0.012787437 	-0.0062946423 	1.782104
0.0029145729 	-0.005598025 	0.014256965 	1.7913058
0.0029346734 	-0.005598025 	0.014256965 	1.7913058
0.0029547739 	-0.00078146576 	0.020126916 	1.7984381
0.0029748744 	-0.00078146576 	0.020126916 	1.7984381
0.0029949749 	0.0017787317 	0.019947056 	1.7431874
0.0030150754 	0.0075172042 	0.024231108 	1.7374975
0.0030351759 	0.0075172042 	0.024231108 	1.7374975
0.0030552764 	0.0050981071 	0.027959769 	1.7275004
0.0030753769 	0.0050981071 	0.027959769 	1.7275004
0.0030954774 	0.0065328925 	0.012609251 	1.7147328
0.0031155779 	0.0069281687 	-0.015640788 	1.6858662
0.0031356784 	0.0069281687 	-0.015640788 	1.6858662
0.0031557789 	0.01108629 	-0.038296048 	1.6458258
0.0031758794 	0.01108629 	-0.038296048 	1.6458258
0.0031959799 	0.0032208515 	-0.05236651 	1.6504689
0.0032160804 	0.0016673799 	-0.057068884 	1.6631255
0.0032361809 	0.0016673799 	-0.057068884 	1.6631255
0.0032562814 	-0.0058183787 	-0.064539907 	1.7007244
0.0032763819 	-0.007484912 	-0.036190546 	1.7250508
0.0032964824 	-0.007484912 	-0.036190546 	1.7250508
0.0033165829 	-0.0016373353 	-0.0066919467 	1.715704
0.0033366834 	-0.001019011 	0.0040441976 	1.7023655
0.0033567839 	-0.001019011 	0.0040441976 	1.7023655
0.0033768844 	-0.00031276041 	0.06433858 	1.6279741
0.0033969849 	0.0014636238 	0.10673409 	1.543144
0.0034170854 	0.0014636238 	0.10673409 	1.543144
0.0034371859 	0.0093761532 	0.10505664 	1.516793
0.0034572864 	0.013648523 	0.071846686 	1.5546197
0.0034773869 	0.018089969 	0.033200844 	1.6393398
0.0034974874 	0.018089969 	0.033200844 	1.6393398
0.0035175879 	0.0195532 	0.047531161 	1.6824347
0.0035376884 	0.013044432 	0.036429133 	1.653768
0.0035577889 	0.014089577 	0.043786141 	1.6568068
0.0035778894 	0.014089577 	0.043786141 	1.6568068
0.0035979899 	0.017334176 	0.053543968 	1.6527396
0.0036180905 	0.021040168 	0.039791137 	1.6453953
0.003638191 	0.016286413 	0.14990611 	1.6648897
0.0036582915 	0.016286413 	0.14990611 	1.6648897
0.003678392 	0.018137147 	0.17392132 	1.6450019
0.0036984925 	0.030641837 	0.029822995 	1.4907389
0.003718593 	0.034495443 	-0.064826288 	1.3624148
0.0037386935 	0.028055512 	-0.064698282 	1.3824968
0.003758794 	0.019769414 	-0.052218241 	1.4658983
0.0037788945 	0.019769414 	-0.052218241 	1.4658983
0.003798995 	0.010868212 	-0.08710853 	1.5387173
0.0038190955 	0.0036580436 	-0.13815156 	1.5550307
0.003839196 	-0.0016772352 	-0.1604609 	1.553105
0.0038592965 	0.0011828044 	-0.07907475 	1.5390808
0.003879397 	-0.011703524 	-0.011121065 	1.5158988
0.0038994975 	0.011955288 	0.021135377 	1.4684441
0.003919598 	-0.0066339706 	-0.014566131 	1.4281161
0.0039396985 	0.027425043 	0.07322794 	1.4613762
0.003959799 	-0.0039261863 	-0.076999642 	1.2512922
0.0039798995 	0.018501369 	0.084110205 	0.59708242
0.004 	0.018501369 	0.084110205 	0.59708242
