0 	0.019038632 	0.061221619 	2.0715114
2.0100503e-05 	0.019038632 	0.061221619 	2.0715114
4.0201005e-05 	0.019038632 	0.061221619 	2.0715114
6.0301508e-05 	-0.014314786 	0.051689691 	2.0848213
8.040201e-05 	-0.014314786 	0.051689691 	2.0848213
0.00010050251 	-0.014314786 	0.051689691 	2.0848213
0.00012060302 	-0.020676407 	0.040526462 	2.0638168
0.00014070352 	-0.020676407 	0.040526462 	2.0638168
0.00016080402 	-0.020676407 	0.040526462 	2.0638168
0.00018090452 	-0.023225324 	0.027607528 	2.0656101
0.00020100503 	-0.023225324 	0.027607528 	2.0656101
0.00022110553 	-0.023225324 	0.027607528 	2.0656101
0.00024120603 	-0.029586086 	0.022780145 	2.0764916
0.00026130653 	-0.029586086 	0.022780145 	2.0764916
0.00028140704 	-0.0355588 	0.034347028 	2.0898369
0.00030150754 	-0.0355588 	0.034347028 	2.0898369
0.00032160804 	-0.0355588 	0.034347028 	2.0898369
0.00034170854 	-0.029142295 	0.055584732 	2.083294
0.00036180905 	-0.029142295 	0.055584732 	2.083294
0.00038190955 	-0.029142295 	0.055584732 	2.083294
0.00040201005 	-0.032200853 	0.061315202 	2.0661618
0.00042211055 	-0.032200853 	0.061315202 	2.0661618
0.00044221106 	-0.032200853 	0.061315202 	2.0661618
0.00046231156 	-0.019828794 	0.053990563 	2.0888398
0.00048241206 	-0.019828794 	0.053990563 	2.0888398
0.00050251256 	-0.019351488 	0.031791335 	2.1318931
0.00052261307 	-0.019351488 	0.031791335 	2.1318931
0.00054271357 	-0.019351488 	0.031791335 	2.1318931
0.00056281407 	-0.010158737 	0.024182455 	2.108698
0.00058291457 	-0.010158737 	0.024182455 	2.108698
0.00060301508 	-0.010158737 	0.024182455 	2.108698
0.00062311558 	0.0023894857 	0.025830194 	2.0374335
0.00064321608 	0.0023894857 	0.025830194 	2.0374335
0.00066331658 	0.0023894857 	0.025830194 	2.0374335
0.00068341709 	0.0082658496 	0.021736179 	2.0351704
0.00070351759 	0.0082658496 	0.021736179 	2.0351704
0.00072361809 	0.005608992 	0.01416941 	2.0566951
0.00074371859 	0.005608992 	0.01416941 	2.0566951
0.0007638191 	0.005608992 	0.01416941 	2.0566951
0.0007839196 	-0.005264213 	0.016729178 	2.0657419
0.0008040201 	-0.005264213 	0.016729178 	2.0657419
0.0008241206 	-0.005264213 	0.016729178 	2.0657419
0.00084422111 	0.0030488016 	0.021091978 	2.0428382
0.00086432161 	0.0030488016 	0.021091978 	2.0428382
0.00088442211 	0.0030488016 	0.021091978 	2.0428382
0.00090452261 	-0.016690721 	0.010689312 	2.0355178
0.00092462312 	-0.016690721 	0.010689312 	2.0355178
0.00094472362 	0.001919492 	0.013341755 	2.0402818
0.00096482412 	0.001919492 	0.013341755 	2.0402818
0.00098492462 	0.001919492 	0.013341755 	2.0402818
0.0010050251 	-0.0075195087 	0.0062550709 	2.0942848
0.0010251256 	-0.0075195087 	0.0062550709 	2.0942848
0.0010452261 	-0.0075195087 	0.0062550709 	2.0942848
0.0010653266 	0.0063377844 	0.024068683 	1.9891093
0.0010854271 	0.0063377844 	0.024068683 	1.9891093
0.0011055276 	0.0063377844 	0.024068683 	1.9891093
0.0011256281 	-0.007202864 	-0.0017952617 	2.0359227
0.0011457286 	-0.007202864 	-0.0017952617 	2.0359227
0.0011658291 	-0.007202864 	-0.0017952617 	2.0359227
0.0011859296 	-0.0075492036 	0.0057438488 	1.9955254
0.0012060302 	-0.0075492036 	0.0057438488 	1.9955254
0.0012261307 	-0.0075492036 	0.0057438488 	1.9955254
0.0012462312 	0.0050656202 	-0.0002432189 	1.9940377
0.0012663317 	0.0050656202 	-0.0002432189 	1.9940377
0.0012864322 	0.0050656202 	-0.0002432189 	1.9940377
0.0013065327 	-0.025135003 	-0.064453468 	1.9966523
0.0013266332 	-0.025135003 	-0.064453468 	1.9966523
0.0013467337 	-0.025135003 	-0.064453468 	1.9966523
0.0013668342 	-0.039691152 	-0.046025756 	1.9655869
0.0013869347 	-0.039691152 	-0.046025756 	1.9655869
0.0014070352 	-0.039691152 	-0.046025756 	1.9655869
0.0014271357 	-0.040055558 	-0.038083042 	1.9321614
0.0014472362 	-0.040055558 	-0.038083042 	1.9321614
0.0014673367 	-0.040055558 	-0.038083042 	1.9321614
0.0014874372 	-0.032881905 	-0.046462934 	2.0044411
0.0015075377 	-0.032881905 	-0.046462934 	2.0044411
0.0015276382 	-0.013865791 	-0.026770355 	1.9823217
0.0015477387 	-0.013865791 	-0.026770355 	1.9823217
0.0015678392 	-0.013865791 	-0.026770355 	1.9823217
0.0015879397 	-0.015630283 	-0.02554841 	1.9835087
0.0016080402 	-0.015630283 	-0.02554841 	1.9835087
0.0016281407 	-0.015630283 	-0.02554841 	1.9835087
0.0016482412 	-0.012124084 	-0.007062527 	2.000365
0.0016683417 	-0.012124084 	-0.007062527 	2.000365
0.0016884422 	-0.020238553 	0.010569648 	2.0076799
0.0017085427 	-0.020238553 	0.010569648 	2.0076799
0.0017286432 	-0.020238553 	0.010569648 	2.0076799
0.0017487437 	-0.0091663608 	0.0052320355 	1.9206196
0.0017688442 	-0.0091663608 	0.0052320355 	1.9206196
0.0017889447 	-0.0091663608 	0.0052320355 	1.9206196
0.0018090452 	-0.018131879 	-0.0049777573 	1.9457787
0.0018291457 	-0.018131879 	-0.0049777573 	1.9457787
0.0018492462 	-0.022297911 	0.019560207 	1.9751605
0.0018693467 	-0.022297911 	0.019560207 	1.9751605
0.0018894472 	-0.022297911 	0.019560207 	1.9751605
0.0019095477 	-0.019361472 	0.036489088 	1.9676835
0.0019296482 	-0.019361472 	0.036489088 	1.9676835
0.0019497487 	-0.03208189 	0.040816484 	1.946411
0.0019698492 	-0.03208189 	0.040816484 	1.946411
0.0019899497 	-0.03208189 	0.040816484 	1.946411
0.0020100503 	-0.027964189 	0.064742742 	1.9381852
0.0020301508 	-0.027964189 	0.064742742 	1.9381852
0.0020502513 	-0.028188433 	0.071885844 	1.9047093
0.0020703518 	-0.028188433 	0.071885844 	1.9047093
0.0020904523 	-0.010778968 	0.067464475 	1.9184833
0.0021105528 	-0.010778968 	0.067464475 	1.9184833
0.0021306533 	-0.010778968 	0.067464475 	1.9184833
0.0021507538 	-0.014634376 	0.083380309 	1.9192766
0.0021708543 	-0.014634376 	0.083380309 	1.9192766
0.0021909548 	-0.028636124 	0.088420862 	1.8852578
0.0022110553 	-0.028636124 	0.088420862 	1.8852578
0.0022311558 	-0.025795411 	0.065447304 	1.925673
0.0022512563 	-0.025795411 	0.065447304 	1.925673
0.0022713568 	-0.02017424 	0.014676531 	1.9202128
0.0022914573 	-0.02017424 	0.014676531 	1.9202128
0.0023115578 	-0.02017424 	0.014676531 	1.9202128
0.0023316583 	-0.0081992293 	-0.0018158215 	1.8850835
0.0023517588 	-0.0081992293 	-0.0018158215 	1.8850835
0.0023718593 	-0.0069791935 	0.0028897528 	1.8907655
0.0023919598 	-0.0069791935 	0.0028897528 	1.8907655
0.0024120603 	-0.015731812 	0.010508777 	1.8911666
0.0024321608 	-0.015731812 	0.010508777 	1.8911666
0.0024522613 	-0.025286709 	-0.022235368 	1.8312614
0.0024723618 	-0.025286709 	-0.022235368 	1.8312614
0.0024924623 	-0.019153794 	-0.018984532 	1.7854708
0.0025125628 	-0.019153794 	-0.018984532 	1.7854708
0.0025326633 	-0.004830494 	-0.012135393 	1.7925294
0.0025527638 	-0.004830494 	-0.012135393 	1.7925294
0.0025728643 	-0.01220119 	-0.031191491 	1.8252326
0.0025929648 	-0.01220119 	-0.031191491 	1.8252326
0.0026130653 	-0.014237437 	-0.0049807674 	1.8775057
0.0026331658 	-0.014237437 	-0.0049807674 	1.8775057
0.0026532663 	-0.019689718 	0.022528455 	1.9000876
0.0026733668 	-0.019689718 	0.022528455 	1.9000876
0.0026934673 	-0.031558094 	0.041096518 	1.8782256
0.0027135678 	-0.031558094 	0.041096518 	1.8782256
0.0027336683 	-0.035780234 	0.073235327 	1.8711855
0.0027537688 	-0.035780234 	0.073235327 	1.8711855
0.0027738693 	-0.048990067 	0.079026484 	1.8227159
0.0027939698 	-0.048990067 	0.079026484 	1.8227159
0.0028140704 	-0.065870616 	0.070364249 	1.7190499
0.0028341709 	-0.065870616 	0.070364249 	1.7190499
0.0028542714 	-0.086451626 	0.043244464 	1.6561749
0.0028743719 	-0.090162681 	0.0063655791 	1.6598501
0.0028944724 	-0.090162681 	0.0063655791 	1.6598501
0.0029145729 	-0.098609755 	0.0063382417 	1.7012013
0.0029346734 	-0.098609755 	0.0063382417 	1.7012013
0.0029547739 	-0.11028783 	-0.00074716893 	1.7098058
0.0029748744 	-0.11028783 	-0.00074716893 	1.7098058
0.0029949749 	-0.11377379 	-0.010537366 	1.6823816
0.0030150754 	-0.10849156 	-0.0043251962 	1.6714767
0.0030351759 	-0.10849156 	-0.0043251962 	1.6714767
0.0030552764 	-0.10407688 	0.0089299822 	1.6693653
0.0030753769 	-0.10407688 	0.0089299822 	1.6693653
0.0030954774 	-0.091785105 	-0.0025776825 	1.6768505
0.0031155779 	-0.080643439 	0.00770833 	1.722868
0.0031356784 	-0.080643439 	0.00770833 	1.722868
0.0031557789 	-0.059987713 	0.028195017 	1.7073714
0.0031758794 	-0.059987713 	0.028195017 	1.7073714
0.0031959799 	-0.040168936 	0.049066103 	1.6844483
0.0032160804 	-0.033768743 	0.06335366 	1.7102959
0.0032361809 	-0.033768743 	0.06335366 	1.7102959
0.0032562814 	-0.03726632 	0.064253371 	1.7401538
0.0032763819 	-0.033055104 	0.042408095 	1.7194396
0.0032964824 	-0.033055104 	0.042408095 	1.7194396
0.0033165829 	-0.037160159 	0.010921574 	1.6879156
0.0033366834 	-0.041768522 	-0.038510151 	1.6700279
0.0033567839 	-0.041768522 	-0.038510151 	1.6700279
0.0033768844 	-0.045506542 	-0.052160718 	1.6568789
0.0033969849 	-0.045171155 	-0.057018006 	1.6513472
0.0034170854 	-0.045171155 	-0.057018006 	1.6513472
0.0034371859 	-0.041484421 	-0.072841516 	1.6569881
0.0034572864 	-0.0351407 	-0.042207907 	1.6726432
0.0034773869 	-0.033945977 	0.023910951 	1.6873624
0.0034974874 	-0.033945977 	0.023910951 	1.6873624
0.0035175879 	-0.033654561 	0.046248325 	1.6627549
0.0035376884 	-0.039507989 	0.018309931 	1.6555414
0.0035577889 	-0.03269617 	0.024109781 	1.6835491
0.0035778894 	-0.03269617 	0.024109781 	1.6835491
0.0035979899 	-0.023923234 	0.038459239 	1.7001521
0.0036180905 	-0.018665629 	0.029609483 	1.6905541
0.003638191 	-0.01311983 	0.004673652 	1.6846879
0.0036582915 	-0.01311983 	0.004673652 	1.6846879
0.003678392 	-0.0048055046 	0.0030616811 	1.6855521
0.0036984925 	0.0072262597 	0.024333025 	1.6322557
0.003718593 	0.019427231 	0.050860684 	1.5668692
0.0037386935 	0.026463948 	0.064785829 	1.5208335
0.003758794 	0.025355118 	0.070378183 	1.5819904
0.0037788945 	0.025355118 	0.070378183 	1.5819904
0.003798995 	0.019042687 	0.074218846 	1.7340189
0.0038190955 	0.029682376 	0.12554537 	1.9229674
0.003839196 	0.020464835 	0.11001596 	1.9736704
0.0038592965 	0.018397872 	-0.034528619 	1.9320098
0.003879397 	-0.0019558184 	-0.1092269 	1.9141145
0.0038994975 	0.033676108 	-0.083532426 	1.6276595
0.003919598 	-0.012485608 	0.0084642182 	1.6078463
0.0039396985 	0.047523711 	-0.21326076 	1.3741585
0.003959799 	0.023986962 	-0.083619418 	1.2871813
0.0039798995 	-0.0056540117 	0.067271167 	0.48437264
0.004 	-0.0056540117 	0.067271167 	0.48437264
