0 	0.019985535 	-0.031920195 	2.0304309
2.0100503e-05 	0.019985535 	-0.031920195 	2.0304309
4.0201005e-05 	0.019985535 	-0.031920195 	2.0304309
6.0301508e-05 	0.019824138 	0.0042763038 	2.0303597
8.040201e-05 	0.019824138 	0.0042763038 	2.0303597
0.00010050251 	0.019824138 	0.0042763038 	2.0303597
0.00012060302 	0.0090016313 	0.030857086 	2.0310532
0.00014070352 	0.0090016313 	0.030857086 	2.0310532
0.00016080402 	0.0090016313 	0.030857086 	2.0310532
0.00018090452 	-0.0054422705 	0.044691291 	2.0241203
0.00020100503 	-0.018305113 	0.045213988 	2.020247
0.00022110553 	-0.018305113 	0.045213988 	2.020247
0.00024120603 	-0.027208522 	0.065498078 	1.989852
0.00026130653 	-0.027208522 	0.065498078 	1.989852
0.00028140704 	-0.036541439 	0.066323203 	1.9847837
0.00030150754 	-0.036541439 	0.066323203 	1.9847837
0.00032160804 	-0.036541439 	0.066323203 	1.9847837
0.00034170854 	-0.050507408 	0.061535706 	1.9729834
0.00036180905 	-0.051172225 	0.078510068 	1.9724893
0.00038190955 	-0.051172225 	0.078510068 	1.9724893
0.00040201005 	-0.055170697 	0.073911784 	1.9470491
0.00042211055 	-0.055170697 	0.073911784 	1.9470491
0.00044221106 	-0.055170697 	0.073911784 	1.9470491
0.00046231156 	-0.049617828 	0.070201762 	1.9358581
0.00048241206 	-0.049617828 	0.070201762 	1.9358581
0.00050251256 	-0.04512143 	0.051925837 	1.9481795
0.00052261307 	-0.04512143 	0.051925837 	1.9481795
0.00054271357 	-0.04512143 	0.051925837 	1.9481795
0.00056281407 	-0.050955935 	0.036065477 	1.9588316
0.00058291457 	-0.050955935 	0.036065477 	1.9588316
0.00060301508 	-0.050955935 	0.036065477 	1.9588316
0.00062311558 	-0.057618316 	0.024706479 	1.9629984
0.00064321608 	-0.062218633 	0.01376734 	1.9958388
0.00066331658 	-0.062218633 	0.01376734 	1.9958388
0.00068341709 	-0.066582196 	-9.9370476e-05 	1.9956722
0.00070351759 	-0.066582196 	-9.9370476e-05 	1.9956722
0.00072361809 	-0.054251477 	-0.0054535485 	2.0180783
0.00074371859 	-0.048242326 	-0.0066281641 	1.9929193
0.0007638191 	-0.048242326 	-0.0066281641 	1.9929193
0.0007839196 	-0.034795361 	0.0010105676 	2.0122647
0.0008040201 	-0.034795361 	0.0010105676 	2.0122647
0.0008241206 	-0.034795361 	0.0010105676 	2.0122647
0.00084422111 	-0.016191043 	0.015291753 	2.0224955
0.00086432161 	-0.016191043 	0.015291753 	2.0224955
0.00088442211 	-0.016191043 	0.015291753 	2.0224955
0.00090452261 	-0.01262502 	0.030490183 	2.0234187
0.00092462312 	-0.01262502 	0.030490183 	2.0234187
0.00094472362 	-0.0042668665 	0.013357582 	1.9967549
0.00096482412 	-0.0042668665 	0.013357582 	1.9967549
0.00098492462 	-0.0042668665 	0.013357582 	1.9967549
0.0010050251 	-0.0036863096 	0.0058723505 	1.9832447
0.0010251256 	-0.0036863096 	0.0058723505 	1.9832447
0.0010452261 	-0.0036863096 	0.0058723505 	1.9832447
0.0010653266 	0.0074492389 	-0.003347962 	1.9994736
0.0010854271 	0.0031731845 	-0.0028899108 	1.9926368
0.0011055276 	0.0074492389 	-0.003347962 	1.9994736
0.0011256281 	0.011263402 	-0.0066166258 	2.0026436
0.0011457286 	0.011263402 	-0.0066166258 	2.0026436
0.0011658291 	0.011263402 	-0.0066166258 	2.0026436
0.0011859296 	0.011120082 	0.0014031549 	1.9719404
0.0012060302 	0.011120082 	0.0014031549 	1.9719404
0.0012261307 	0.011120082 	0.0014031549 	1.9719404
0.0012462312 	0.02544652 	-0.022131419 	1.9520204
0.0012663317 	0.02544652 	-0.022131419 	1.9520204
0.0012864322 	0.02544652 	-0.022131419 	1.9520204
0.0013065327 	0.0081139929 	-0.026351889 	1.9244489
0.0013266332 	0.0081139929 	-0.026351889 	1.9244489
0.0013467337 	0.0081139929 	-0.026351889 	1.9244489
0.0013668342 	-0.0055898529 	-0.0070549981 	1.9357362
0.0013869347 	-0.0055898529 	-0.0070549981 	1.9357362
0.0014070352 	-0.0055898529 	-0.0070549981 	1.9357362
0.0014271357 	0.0041158674 	0.013370003 	1.933705
0.0014472362 	0.0041158674 	0.013370003 	1.933705
0.0014673367 	0.0041158674 	0.013370003 	1.933705
0.0014874372 	0.021442681 	0.003632215 	1.9775165
0.0015075377 	0.021442681 	0.003632215 	1.9775165
0.0015276382 	0.022600487 	-0.013177671 	2.0070436
0.0015477387 	0.022600487 	-0.013177671 	2.0070436
0.0015678392 	0.022600487 	-0.013177671 	2.0070436
0.0015879397 	0.042574276 	0.0045565598 	2.0171142
0.0016080402 	0.042574276 	0.0045565598 	2.0171142
0.0016281407 	0.042574276 	0.0045565598 	2.0171142
0.0016482412 	0.042864536 	0.015606555 	2.0175678
0.0016683417 	0.042864536 	0.015606555 	2.0175678
0.0016884422 	0.060788171 	0.024808124 	1.9967555
0.0017085427 	0.060788171 	0.024808124 	1.9967555
0.0017286432 	0.060788171 	0.024808124 	1.9967555
0.0017487437 	0.05507499 	0.054896625 	1.9747626
0.0017688442 	0.05507499 	0.054896625 	1.9747626
0.0017889447 	0.05507499 	0.054896625 	1.9747626
0.0018090452 	0.052073515 	0.069082526 	1.9752273
0.0018291457 	0.052073515 	0.069082526 	1.9752273
0.0018492462 	0.044165194 	0.055006254 	1.9354936
0.0018693467 	0.044165194 	0.055006254 	1.9354936
0.0018894472 	0.044165194 	0.055006254 	1.9354936
0.0019095477 	0.03349722 	0.029749417 	1.9481787
0.0019296482 	0.03349722 	0.029749417 	1.9481787
0.0019497487 	0.023022824 	0.018224042 	1.9724736
0.0019698492 	0.023022824 	0.018224042 	1.9724736
0.0019899497 	0.015779559 	0.025285433 	1.9602403
0.0020100503 	0.015779559 	0.025285433 	1.9602403
0.0020301508 	0.015779559 	0.025285433 	1.9602403
0.0020502513 	-0.0010949813 	0.018041051 	1.9307102
0.0020703518 	-0.0010949813 	0.018041051 	1.9307102
0.0020904523 	-0.016831614 	-0.011600487 	1.9199481
0.0021105528 	-0.016831614 	-0.011600487 	1.9199481
0.0021306533 	-0.016831614 	-0.011600487 	1.9199481
0.0021507538 	-0.015563249 	-0.033188803 	1.9207065
0.0021708543 	-0.015563249 	-0.033188803 	1.9207065
0.0021909548 	-0.0021133408 	-0.061140477 	1.9248322
0.0022110553 	-0.0021133408 	-0.061140477 	1.9248322
0.0022311558 	0.0067384369 	-0.059051821 	1.8982752
0.0022512563 	0.0067384369 	-0.059051821 	1.8982752
0.0022713568 	0.0063478443 	-0.060182013 	1.8665431
0.0022914573 	0.0063478443 	-0.060182013 	1.8665431
0.0023115578 	0.0063478443 	-0.060182013 	1.8665431
0.0023316583 	-0.0058134429 	-0.013217806 	1.8962689
0.0023517588 	-0.0058134429 	-0.013217806 	1.8962689
0.0023718593 	-0.0043973777 	0.03183406 	1.9062547
0.0023919598 	-0.0043973777 	0.03183406 	1.9062547
0.0024120603 	-0.015738104 	0.024395864 	1.8458204
0.0024321608 	-0.015738104 	0.024395864 	1.8458204
0.0024522613 	-0.015478054 	0.0035025158 	1.8385608
0.0024723618 	-0.015478054 	0.0035025158 	1.8385608
0.0024924623 	-0.031166396 	-0.011210951 	1.8012646
0.0025125628 	-0.031166396 	-0.011210951 	1.8012646
0.0025326633 	-0.028145801 	0.012793381 	1.7474591
0.0025527638 	-0.028145801 	0.012793381 	1.7474591
0.0025728643 	-0.031511095 	0.009775792 	1.7693791
0.0025929648 	-0.031511095 	0.009775792 	1.7693791
0.0026130653 	-0.023478672 	-0.037930491 	1.7950819
0.0026331658 	-0.023478672 	-0.037930491 	1.7950819
0.0026532663 	-0.013543135 	-0.054400633 	1.7631825
0.0026733668 	-0.013543135 	-0.054400633 	1.7631825
0.0026934673 	0.00021666898 	-0.052088425 	1.7911881
0.0027135678 	0.00021666898 	-0.052088425 	1.7911881
0.0027336683 	-0.0043525677 	-0.037412854 	1.7907058
0.0027537688 	-0.0043525677 	-0.037412854 	1.7907058
0.0027738693 	-6.5846004e-05 	-0.043118839 	1.8290996
0.0027939698 	-6.5846004e-05 	-0.043118839 	1.8290996
0.0028140704 	0.0017542579 	-0.056132415 	1.8578384
0.0028341709 	0.0017542579 	-0.056132415 	1.8578384
0.0028542714 	0.0024326884 	-0.066709678 	1.8801096
0.0028743719 	-0.00064184394 	-0.077855027 	1.8562267
0.0028944724 	-0.00064184394 	-0.077855027 	1.8562267
0.0029145729 	0.0049300594 	-0.12440946 	1.8166008
0.0029346734 	0.0049300594 	-0.12440946 	1.8166008
0.0029547739 	-0.025716152 	-0.11174555 	1.7515271
0.0029748744 	-0.025716152 	-0.11174555 	1.7515271
0.0029949749 	-0.020296379 	-0.12267232 	1.6931374
0.0030150754 	-0.041777304 	-0.12933008 	1.6953023
0.0030351759 	-0.041777304 	-0.12933008 	1.6953023
0.0030552764 	-0.051526759 	-0.10526998 	1.7955672
0.0030753769 	-0.051526759 	-0.10526998 	1.7955672
0.0030954774 	-0.056515782 	-0.099007762 	1.7981993
0.0031155779 	-0.055515387 	-0.030293798 	1.7707092
0.0031356784 	-0.055515387 	-0.030293798 	1.7707092
0.0031557789 	-0.04436152 	0.039692604 	1.7815956
0.0031758794 	-0.04436152 	0.039692604 	1.7815956
0.0031959799 	-0.036803308 	0.042737275 	1.7743933
0.0032160804 	-0.02540296 	0.037384099 	1.7100643
0.0032361809 	-0.02540296 	0.037384099 	1.7100643
0.0032562814 	-0.031667521 	0.039365806 	1.7076306
0.0032763819 	-0.035265505 	-9.5515554e-05 	1.7206198
0.0032964824 	-0.035265505 	-9.5515554e-05 	1.7206198
0.0033165829 	-0.036108325 	-0.068918763 	1.7200284
0.0033366834 	-0.026136487 	-0.069568414 	1.7804515
0.0033567839 	-0.026136487 	-0.069568414 	1.7804515
0.0033768844 	-0.020551635 	-0.092359386 	1.7909598
0.0033969849 	-0.014562478 	-0.091751191 	1.6477571
0.0034170854 	-0.014562478 	-0.091751191 	1.6477571
0.0034371859 	-0.015185245 	-0.075332427 	1.6148239
0.0034572864 	-0.028785575 	-0.089342417 	1.650709
0.0034773869 	-0.038634859 	-0.10484 	1.6926151
0.0034974874 	-0.038634859 	-0.10484 	1.6926151
0.0035175879 	-0.038619802 	-0.095048454 	1.7281246
0.0035376884 	-0.024675628 	-0.076771493 	1.7478499
0.0035577889 	-0.011181604 	-0.06564591 	1.7584672
0.0035778894 	-0.011181604 	-0.06564591 	1.7584672
0.0035979899 	-0.00084853047 	-0.10348039 	1.758315
0.0036180905 	-0.00345621 	-0.15367621 	1.7169491
0.003638191 	-0.026279776 	-0.14719822 	1.6725507
0.0036582915 	-0.026279776 	-0.14719822 	1.6725507
0.003678392 	-0.04903767 	-0.10512031 	1.6500019
0.0036984925 	-0.061781461 	-0.048778725 	1.6413917
0.003718593 	-0.066223965 	0.0074313385 	1.6216431
0.0037386935 	-0.063240006 	0.0701347 	1.6272884
0.003758794 	-0.046373133 	0.10706808 	1.6404158
0.0037788945 	-0.046373133 	0.10706808 	1.6404158
0.003798995 	-0.027917703 	0.085503406 	1.6485888
0.0038190955 	-0.015786927 	0.0099404721 	1.6614142
0.003839196 	-0.017741682 	-0.083932192 	1.6810012
0.0038592965 	-0.016146336 	-0.18722033 	1.6380043
0.003879397 	-0.028784495 	-0.15887829 	1.5311676
0.0038994975 	-0.023348753 	0.0061885621 	1.49605
0.003919598 	-0.059377407 	0.21963126 	1.3886783
0.0039396985 	-0.019814312 	0.012484338 	1.069539
0.003959799 	-0.029532716 	0.11066839 	0.63678623
0.0039798995 	-0.0046186301 	0.02155949 	0.28172197
0.004 	-0.0046186301 	0.02155949 	0.28172197
