0 	0.019038632 	0.061221619 	2.0715114
2.0100503e-05 	0.019038632 	0.061221619 	2.0715114
4.0201005e-05 	0.019038632 	0.061221619 	2.0715114
6.0301508e-05 	0.045283436 	0.04138459 	2.0813023
8.040201e-05 	0.045283436 	0.04138459 	2.0813023
0.00010050251 	0.045283436 	0.04138459 	2.0813023
0.00012060302 	0.046041551 	0.026775667 	2.0923131
0.00014070352 	0.046041551 	0.026775667 	2.0923131
0.00016080402 	0.046041551 	0.026775667 	2.0923131
0.00018090452 	0.046217748 	0.015209768 	2.1144581
0.00020100503 	0.046217748 	0.015209768 	2.1144581
0.00022110553 	0.046217748 	0.015209768 	2.1144581
0.00024120603 	0.035507658 	0.004046765 	2.1128165
0.00026130653 	0.035507658 	0.004046765 	2.1128165
0.00028140704 	0.020539448 	-0.012366152 	2.0940623
0.00030150754 	0.020539448 	-0.012366152 	2.0940623
0.00032160804 	0.020539448 	-0.012366152 	2.0940623
0.00034170854 	0.013340224 	-0.023338332 	2.0879792
0.00036180905 	0.013340224 	-0.023338332 	2.0879792
0.00038190955 	0.013340224 	-0.023338332 	2.0879792
0.00040201005 	0.0086234427 	-0.0008928294 	2.0916941
0.00042211055 	0.0086234427 	-0.0008928294 	2.0916941
0.00044221106 	0.0086234427 	-0.0008928294 	2.0916941
0.00046231156 	0.014353127 	0.0018577519 	2.0885942
0.00048241206 	0.014353127 	0.0018577519 	2.0885942
0.00050251256 	0.014048746 	0.0044844575 	2.0867209
0.00052261307 	0.014048746 	0.0044844575 	2.0867209
0.00054271357 	0.014048746 	0.0044844575 	2.0867209
0.00056281407 	0.017864643 	0.0090236688 	2.097584
0.00058291457 	0.017864643 	0.0090236688 	2.097584
0.00060301508 	0.017864643 	0.0090236688 	2.097584
0.00062311558 	0.021105897 	0.014717679 	2.1052536
0.00064321608 	0.0095025171 	0.011345256 	2.1149961
0.00066331658 	0.0095025171 	0.011345256 	2.1149961
0.00068341709 	0.0064933514 	0.020149566 	2.1201309
0.00070351759 	0.0064933514 	0.020149566 	2.1201309
0.00072361809 	0.0082567374 	0.023006791 	2.1214982
0.00074371859 	0.0082567374 	0.023006791 	2.1214982
0.0007638191 	0.0082567374 	0.023006791 	2.1214982
0.0007839196 	0.023235998 	0.024821477 	2.1235299
0.0008040201 	0.023235998 	0.024821477 	2.1235299
0.0008241206 	0.023235998 	0.024821477 	2.1235299
0.00084422111 	0.018064066 	0.019967102 	2.1251151
0.00086432161 	0.018064066 	0.019967102 	2.1251151
0.00088442211 	0.018064066 	0.019967102 	2.1251151
0.00090452261 	0.031792924 	0.010738264 	2.1122395
0.00092462312 	0.031792924 	0.010738264 	2.1122395
0.00094472362 	0.035059582 	0.02215523 	2.1009188
0.00096482412 	0.035059582 	0.02215523 	2.1009188
0.00098492462 	0.035059582 	0.02215523 	2.1009188
0.0010050251 	0.02114843 	0.016065468 	2.0788223
0.0010251256 	0.02114843 	0.016065468 	2.0788223
0.0010452261 	0.02114843 	0.016065468 	2.0788223
0.0010653266 	0.036434882 	0.015021624 	2.0603989
0.0010854271 	0.036434882 	0.015021624 	2.0603989
0.0011055276 	0.036434882 	0.015021624 	2.0603989
0.0011256281 	0.018557376 	0.020131369 	2.0725849
0.0011457286 	0.018557376 	0.020131369 	2.0725849
0.0011658291 	0.018557376 	0.020131369 	2.0725849
0.0011859296 	0.027673491 	0.0048148396 	2.0606773
0.0012060302 	0.027673491 	0.0048148396 	2.0606773
0.0012261307 	0.027673491 	0.0048148396 	2.0606773
0.0012462312 	0.033326071 	0.0060405388 	2.0605177
0.0012663317 	0.033326071 	0.0060405388 	2.0605177
0.0012864322 	0.033326071 	0.0060405388 	2.0605177
0.0013065327 	0.043308195 	0.011474334 	2.0657007
0.0013266332 	0.043308195 	0.011474334 	2.0657007
0.0013467337 	0.043308195 	0.011474334 	2.0657007
0.0013668342 	0.057809459 	0.019044521 	2.0722052
0.0013869347 	0.057809459 	0.019044521 	2.0722052
0.0014070352 	0.057809459 	0.019044521 	2.0722052
0.0014271357 	0.059528229 	0.0027209091 	2.0473545
0.0014472362 	0.059528229 	0.0027209091 	2.0473545
0.0014673367 	0.059528229 	0.0027209091 	2.0473545
0.0014874372 	0.058831133 	-0.014833281 	2.0801357
0.0015075377 	0.058831133 	-0.014833281 	2.0801357
0.0015276382 	0.06780097 	-3.7754477e-05 	2.1065429
0.0015477387 	0.06780097 	-3.7754477e-05 	2.1065429
0.0015678392 	0.06780097 	-3.7754477e-05 	2.1065429
0.0015879397 	0.073472224 	0.029707203 	2.0992853
0.0016080402 	0.073472224 	0.029707203 	2.0992853
0.0016281407 	0.073472224 	0.029707203 	2.0992853
0.0016482412 	0.075578213 	0.034900342 	2.0919267
0.0016683417 	0.075578213 	0.034900342 	2.0919267
0.0016884422 	0.070646126 	0.051753262 	2.0820573
0.0017085427 	0.070646126 	0.051753262 	2.0820573
0.0017286432 	0.070646126 	0.051753262 	2.0820573
0.0017487437 	0.063519836 	0.076790954 	2.0915392
0.0017688442 	0.063519836 	0.076790954 	2.0915392
0.0017889447 	0.063519836 	0.076790954 	2.0915392
0.0018090452 	0.051159169 	0.058005493 	2.0700536
0.0018291457 	0.051159169 	0.058005493 	2.0700536
0.0018492462 	0.030033823 	0.02947605 	2.0270992
0.0018693467 	0.030033823 	0.02947605 	2.0270992
0.0018894472 	0.030033823 	0.02947605 	2.0270992
0.0019095477 	0.01382176 	0.023960426 	2.0148135
0.0019296482 	0.01382176 	0.023960426 	2.0148135
0.0019497487 	-0.015885604 	0.012840991 	1.9644021
0.0019698492 	-0.015885604 	0.012840991 	1.9644021
0.0019899497 	-0.023489119 	0.011675645 	1.9253527
0.0020100503 	-0.023489119 	0.011675645 	1.9253527
0.0020301508 	-0.023489119 	0.011675645 	1.9253527
0.0020502513 	-0.033803343 	-0.0039429492 	1.8919931
0.0020703518 	-0.033803343 	-0.0039429492 	1.8919931
0.0020904523 	-0.036521807 	-0.019122417 	1.9298847
0.0021105528 	-0.036521807 	-0.019122417 	1.9298847
0.0021306533 	-0.036521807 	-0.019122417 	1.9298847
0.0021507538 	-0.034296048 	0.010004902 	2.0187008
0.0021708543 	-0.034296048 	0.010004902 	2.0187008
0.0021909548 	-0.04208298 	0.032130234 	1.9558347
0.0022110553 	-0.04208298 	0.032130234 	1.9558347
0.0022311558 	-0.053114174 	0.025314841 	1.930777
0.0022512563 	-0.053114174 	0.025314841 	1.930777
0.0022713568 	-0.066200616 	0.008133067 	1.9120258
0.0022914573 	-0.066200616 	0.008133067 	1.9120258
0.0023115578 	-0.066200616 	0.008133067 	1.9120258
0.0023316583 	-0.061019824 	-0.020171081 	1.843214
0.0023517588 	-0.061019824 	-0.020171081 	1.843214
0.0023718593 	-0.050749909 	-0.014137603 	1.8373678
0.0023919598 	-0.050749909 	-0.014137603 	1.8373678
0.0024120603 	-0.043369704 	-0.00078917705 	1.8165561
0.0024321608 	-0.043369704 	-0.00078917705 	1.8165561
0.0024522613 	-0.040269914 	-0.0036011188 	1.7930609
0.0024723618 	-0.040269914 	-0.0036011188 	1.7930609
0.0024924623 	-0.046934222 	-0.028857247 	1.7871654
0.0025125628 	-0.046934222 	-0.028857247 	1.7871654
0.0025326633 	-0.031033143 	-0.024062477 	1.8372045
0.0025527638 	-0.031033143 	-0.024062477 	1.8372045
0.0025728643 	-0.020810911 	0.027952063 	1.880486
0.0025929648 	-0.020810911 	0.027952063 	1.880486
0.0026130653 	-0.011493125 	0.060061916 	1.9005477
0.0026331658 	-0.011493125 	0.060061916 	1.9005477
0.0026532663 	-0.00041646512 	0.039588878 	1.9000996
0.0026733668 	-0.00041646512 	0.039588878 	1.9000996
0.0026934673 	-0.0011042713 	-0.0046946834 	1.9062511
0.0027135678 	-0.0011042713 	-0.0046946834 	1.9062511
0.0027336683 	0.0012517814 	-0.0060078004 	1.9089425
0.0027537688 	0.0012517814 	-0.0060078004 	1.9089425
0.0027738693 	-0.015990892 	0.010392226 	1.8875512
0.0027939698 	-0.015990892 	0.010392226 	1.8875512
0.0028140704 	-0.025051275 	-0.0029437564 	1.8969286
0.0028341709 	-0.025051275 	-0.0029437564 	1.8969286
0.0028542714 	-0.027336846 	-0.056078688 	1.9058096
0.0028743719 	-0.010164649 	-0.042725547 	1.8951984
0.0028944724 	-0.010164649 	-0.042725547 	1.8951984
0.0029145729 	-0.0034000659 	-0.053789653 	1.8661002
0.0029346734 	-0.0034000659 	-0.053789653 	1.8661002
0.0029547739 	0.01186758 	-0.036749475 	1.8589514
0.0029748744 	0.01186758 	-0.036749475 	1.8589514
0.0029949749 	0.012370266 	-0.020714971 	1.7986263
0.0030150754 	0.0069834762 	-0.0067015243 	1.7269272
0.0030351759 	0.0069834762 	-0.0067015243 	1.7269272
0.0030552764 	-0.011846232 	0.013824893 	1.756043
0.0030753769 	-0.011846232 	0.013824893 	1.756043
0.0030954774 	-0.012545275 	0.070191058 	1.7211372
0.0031155779 	-0.037235915 	0.1090061 	1.7198165
0.0031356784 	-0.037235915 	0.1090061 	1.7198165
0.0031557789 	-0.050172251 	0.097173945 	1.7194763
0.0031758794 	-0.050172251 	0.097173945 	1.7194763
0.0031959799 	-0.055721741 	0.096521869 	1.7346315
0.0032160804 	-0.054073925 	0.096609103 	1.8012038
0.0032361809 	-0.054073925 	0.096609103 	1.8012038
0.0032562814 	-0.040247734 	0.10952565 	1.7964293
0.0032763819 	-0.032809086 	0.10199361 	1.7921849
0.0032964824 	-0.032809086 	0.10199361 	1.7921849
0.0033165829 	-0.010527626 	0.082006552 	1.7835485
0.0033366834 	0.00518134 	0.088580516 	1.7481108
0.0033567839 	0.00518134 	0.088580516 	1.7481108
0.0033768844 	0.018145443 	0.12606946 	1.7303459
0.0033969849 	0.030495572 	0.12760159 	1.7284202
0.0034170854 	0.030495572 	0.12760159 	1.7284202
0.0034371859 	0.033159595 	0.020463598 	1.744424
0.0034572864 	0.037268624 	-0.052948766 	1.7539989
0.0034773869 	0.036299666 	-0.051695723 	1.7972818
0.0034974874 	0.036299666 	-0.051695723 	1.7972818
0.0035175879 	0.021592824 	-0.056976588 	1.8905583
0.0035376884 	0.017227804 	-0.10075346 	1.9532399
0.0035577889 	0.02810559 	-0.12328436 	1.8847064
0.0035778894 	0.02810559 	-0.12328436 	1.8847064
0.0035979899 	0.040467623 	-0.056532988 	1.8120428
0.0036180905 	0.044620946 	0.013040841 	1.7478531
0.003638191 	0.036340379 	0.035990079 	1.6363728
0.0036582915 	0.036340379 	0.035990079 	1.6363728
0.003678392 	0.022067519 	0.0045045613 	1.5583222
0.0036984925 	0.0032627005 	-0.024566158 	1.5253693
0.003718593 	-0.013815626 	-0.013713385 	1.5416913
0.0037386935 	-0.026900673 	-0.033046915 	1.5898124
0.003758794 	-0.046221602 	-0.05113526 	1.598816
0.0037788945 	-0.046221602 	-0.05113526 	1.598816
0.003798995 	-0.055779031 	-0.063871138 	1.5180719
0.0038190955 	-0.057625245 	-0.059880786 	1.4073319
0.003839196 	-0.055312679 	-0.046264284 	1.3858182
0.0038592965 	-0.063905929 	-0.052685033 	1.404355
0.003879397 	-0.076056708 	-0.038299775 	1.4179648
0.0038994975 	-0.057399849 	0.024403983 	1.2892098
0.003919598 	-0.0074611479 	0.0033362238 	1.2345177
0.0039396985 	0.0065807547 	0.20432653 	0.84041004
0.003959799 	-0.0077825792 	0.14365842 	0.98107465
0.0039798995 	0.021018025 	0.086328464 	0.34884705
0.004 	0.021018025 	0.086328464 	0.34884705
