0 	0.00032709416 	0.040891069 	1.9492289
2.0100503e-05 	-0.034864278 	-0.0072022764 	1.9563373
4.0201005e-05 	-0.034864278 	-0.0072022764 	1.9563373
6.0301508e-05 	-0.0091766688 	-0.012099114 	1.9629922
8.040201e-05 	-0.0091766688 	-0.012099114 	1.9629922
0.00010050251 	-0.0091766688 	-0.012099114 	1.9629922
0.00012060302 	-0.0019010976 	0.0020417605 	1.9677886
0.00014070352 	-0.0019010976 	0.0020417605 	1.9677886
0.00016080402 	-0.0019010976 	0.0020417605 	1.9677886
0.00018090452 	-0.014534123 	0.0017568616 	1.9636423
0.00020100503 	-0.014534123 	0.0017568616 	1.9636423
0.00022110553 	-0.014534123 	0.0017568616 	1.9636423
0.00024120603 	-0.029479509 	-0.011835362 	1.9295692
0.00026130653 	-0.029479509 	-0.011835362 	1.9295692
0.00028140704 	-0.031229351 	-0.028692292 	1.9568445
0.00030150754 	-0.031229351 	-0.028692292 	1.9568445
0.00032160804 	-0.031229351 	-0.028692292 	1.9568445
0.00034170854 	-0.030877134 	-0.032946831 	1.9911422
0.00036180905 	-0.030877134 	-0.032946831 	1.9911422
0.00038190955 	-0.030877134 	-0.032946831 	1.9911422
0.00040201005 	-0.035932102 	-0.0094468424 	2.0363929
0.00042211055 	-0.035932102 	-0.0094468424 	2.0363929
0.00044221106 	-0.035932102 	-0.0094468424 	2.0363929
0.00046231156 	-0.031791314 	0.0087536171 	2.0387187
0.00048241206 	-0.031791314 	0.0087536171 	2.0387187
0.00050251256 	-0.028715849 	0.028590002 	2.0693626
0.00052261307 	-0.028715849 	0.028590002 	2.0693626
0.00054271357 	-0.028715849 	0.028590002 	2.0693626
0.00056281407 	-0.032357624 	0.041520011 	2.0823135
0.00058291457 	-0.032357624 	0.041520011 	2.0823135
0.00060301508 	-0.032357624 	0.041520011 	2.0823135
0.00062311558 	-0.039217545 	0.026167422 	2.0303758
0.00064321608 	-0.039217545 	0.026167422 	2.0303758
0.00066331658 	-0.039217545 	0.026167422 	2.0303758
0.00068341709 	-0.025357406 	0.0089067316 	1.9803223
0.00070351759 	-0.025357406 	0.0089067316 	1.9803223
0.00072361809 	-0.034702367 	0.017265623 	1.9981662
0.00074371859 	-0.034702367 	0.017265623 	1.9981662
0.0007638191 	-0.034702367 	0.017265623 	1.9981662
0.0007839196 	-0.042351462 	0.026185725 	2.037785
0.0008040201 	-0.042351462 	0.026185725 	2.037785
0.0008241206 	-0.042351462 	0.026185725 	2.037785
0.00084422111 	-0.034233114 	0.030857388 	2.0537823
0.00086432161 	-0.034233114 	0.030857388 	2.0537823
0.00088442211 	-0.034233114 	0.030857388 	2.0537823
0.00090452261 	-0.019722336 	0.00042507767 	2.0387535
0.00092462312 	-0.019722336 	0.00042507767 	2.0387535
0.00094472362 	-0.023131967 	-0.020855553 	1.9938313
0.00096482412 	-0.023131967 	-0.020855553 	1.9938313
0.00098492462 	-0.023131967 	-0.020855553 	1.9938313
0.0010050251 	-0.033648527 	-0.023037272 	2.0278427
0.0010251256 	-0.033648527 	-0.023037272 	2.0278427
0.0010452261 	-0.033648527 	-0.023037272 	2.0278427
0.0010653266 	-0.031106232 	-0.023070483 	1.9945798
0.0010854271 	-0.031106232 	-0.023070483 	1.9945798
0.0011055276 	-0.031106232 	-0.023070483 	1.9945798
0.0011256281 	-0.019682589 	-0.0083587824 	1.9968645
0.0011457286 	-0.019682589 	-0.0083587824 	1.9968645
0.0011658291 	-0.019682589 	-0.0083587824 	1.9968645
0.0011859296 	-0.011420419 	-0.0043636804 	2.0283692
0.0012060302 	-0.011420419 	-0.0043636804 	2.0283692
0.0012261307 	-0.011420419 	-0.0043636804 	2.0283692
0.0012462312 	-0.0020613409 	-0.0021773365 	2.0206473
0.0012663317 	-0.0020613409 	-0.0021773365 	2.0206473
0.0012864322 	-0.0020613409 	-0.0021773365 	2.0206473
0.0013065327 	-0.001424017 	-0.00033075043 	1.999831
0.0013266332 	-0.001424017 	-0.00033075043 	1.999831
0.0013467337 	-0.001424017 	-0.00033075043 	1.999831
0.0013668342 	0.0011001475 	-0.0078434941 	2.0288464
0.0013869347 	0.0011001475 	-0.0078434941 	2.0288464
0.0014070352 	0.0011001475 	-0.0078434941 	2.0288464
0.0014271357 	0.0083227044 	-0.023039143 	2.0421809
0.0014472362 	0.0083227044 	-0.023039143 	2.0421809
0.0014673367 	0.0083227044 	-0.023039143 	2.0421809
0.0014874372 	0.010987312 	-0.022512034 	2.0045733
0.0015075377 	0.010987312 	-0.022512034 	2.0045733
0.0015276382 	-0.0040943029 	-0.025163576 	1.951393
0.0015477387 	-0.0040943029 	-0.025163576 	1.951393
0.0015678392 	-0.0040943029 	-0.025163576 	1.951393
0.0015879397 	-0.0057033121 	-0.046657256 	1.9585269
0.0016080402 	-0.0057033121 	-0.046657256 	1.9585269
0.0016281407 	-0.0057033121 	-0.046657256 	1.9585269
0.0016482412 	-0.034721817 	-0.051418884 	1.965026
0.0016683417 	-0.034721817 	-0.051418884 	1.965026
0.0016884422 	-0.045013985 	-0.011620324 	1.9683128
0.0017085427 	-0.045013985 	-0.011620324 	1.9683128
0.0017286432 	-0.045013985 	-0.011620324 	1.9683128
0.0017487437 	-0.044884992 	0.022043905 	1.959472
0.0017688442 	-0.044884992 	0.022043905 	1.959472
0.0017889447 	-0.044884992 	0.022043905 	1.959472
0.0018090452 	-0.055109301 	0.019391537 	1.9978835
0.0018291457 	-0.055109301 	0.019391537 	1.9978835
0.0018492462 	-0.04981425 	0.036934481 	1.9710699
0.0018693467 	-0.04981425 	0.036934481 	1.9710699
0.0018894472 	-0.04981425 	0.036934481 	1.9710699
0.0019095477 	-0.067501003 	0.039728908 	1.8916769
0.0019296482 	-0.067501003 	0.039728908 	1.8916769
0.0019497487 	-0.077110014 	0.024782849 	1.8256784
0.0019698492 	-0.077110014 	0.024782849 	1.8256784
0.0019899497 	-0.077110014 	0.024782849 	1.8256784
0.0020100503 	-0.081435827 	0.011011704 	1.7990801
0.0020301508 	-0.081435827 	0.011011704 	1.7990801
0.0020502513 	-0.077193755 	0.0058134328 	1.8306363
0.0020703518 	-0.077193755 	0.0058134328 	1.8306363
0.0020904523 	-0.06983694 	-0.0032121676 	1.8647148
0.0021105528 	-0.06983694 	-0.0032121676 	1.8647148
0.0021306533 	-0.06983694 	-0.0032121676 	1.8647148
0.0021507538 	-0.060325088 	-0.017794112 	1.9058725
0.0021708543 	-0.060325088 	-0.017794112 	1.9058725
0.0021909548 	-0.055088071 	-0.011137946 	1.9137229
0.0022110553 	-0.055088071 	-0.011137946 	1.9137229
0.0022311558 	-0.048926239 	0.017979988 	1.8846408
0.0022512563 	-0.048926239 	0.017979988 	1.8846408
0.0022713568 	-0.035652981 	0.026577467 	1.8755897
0.0022914573 	-0.035652981 	0.026577467 	1.8755897
0.0023115578 	-0.035652981 	0.026577467 	1.8755897
0.0023316583 	-0.024383367 	0.018711032 	1.8573449
0.0023517588 	-0.024383367 	0.018711032 	1.8573449
0.0023718593 	-0.023227218 	2.1670451e-05 	1.8832193
0.0023919598 	-0.023227218 	2.1670451e-05 	1.8832193
0.0024120603 	-0.016255334 	0.0069389741 	1.9359898
0.0024321608 	-0.016255334 	0.0069389741 	1.9359898
0.0024522613 	-0.021674518 	0.017670316 	1.9394744
0.0024723618 	-0.021674518 	0.017670316 	1.9394744
0.0024924623 	-0.022374986 	0.0046720277 	1.8895796
0.0025125628 	-0.022374986 	0.0046720277 	1.8895796
0.0025326633 	-0.022059319 	-3.0228484e-05 	1.8492113
0.0025527638 	-0.022059319 	-3.0228484e-05 	1.8492113
0.0025728643 	-0.037406161 	0.012020813 	1.8783543
0.0025929648 	-0.037406161 	0.012020813 	1.8783543
0.0026130653 	-0.042180745 	0.014885642 	1.93381
0.0026331658 	-0.042180745 	0.014885642 	1.93381
0.0026532663 	-0.051513461 	0.0036477083 	1.9543509
0.0026733668 	-0.051513461 	0.0036477083 	1.9543509
0.0026934673 	-0.038868747 	-0.010619668 	1.9081402
0.0027135678 	-0.038868747 	-0.010619668 	1.9081402
0.0027336683 	-0.04020381 	-0.0045719857 	1.9096277
0.0027537688 	-0.04020381 	-0.0045719857 	1.9096277
0.0027738693 	-0.050402814 	0.00089654959 	1.8839383
0.0027939698 	-0.050402814 	0.00089654959 	1.8839383
0.0028140704 	-0.040250268 	-0.021978144 	1.8367951
0.0028341709 	-0.040250268 	-0.021978144 	1.8367951
0.0028542714 	-0.033532577 	-0.02444631 	1.7907475
0.0028743719 	-0.027524126 	0.015886105 	1.7852159
0.0028944724 	-0.027524126 	0.015886105 	1.7852159
0.0029145729 	-0.025888488 	0.020150317 	1.8007908
0.0029346734 	-0.025888488 	0.020150317 	1.8007908
0.0029547739 	-0.031543277 	-0.041841859 	1.784405
0.0029748744 	-0.031543277 	-0.041841859 	1.784405
0.0029949749 	-0.023916547 	-0.06649207 	1.7730469
0.0030150754 	-0.03147807 	-0.052662077 	1.7692665
0.0030351759 	-0.03147807 	-0.052662077 	1.7692665
0.0030552764 	-0.036450297 	-0.010751213 	1.756948
0.0030753769 	-0.036450297 	-0.010751213 	1.756948
0.0030954774 	-0.027516613 	-0.0042883964 	1.7371464
0.0031155779 	-0.019868511 	-0.020080689 	1.7487383
0.0031356784 	-0.019868511 	-0.020080689 	1.7487383
0.0031557789 	-0.01371376 	-0.011270743 	1.7894548
0.0031758794 	-0.01371376 	-0.011270743 	1.7894548
0.0031959799 	0.0054415053 	0.026744995 	1.8066497
0.0032160804 	0.033490609 	0.025616733 	1.7665564
0.0032361809 	0.033490609 	0.025616733 	1.7665564
0.0032562814 	0.061422062 	0.035054141 	1.7310818
0.0032763819 	0.087531978 	0.033009885 	1.714186
0.0032964824 	0.087531978 	0.033009885 	1.714186
0.0033165829 	0.098888862 	0.03659562 	1.732524
0.0033366834 	0.099382555 	0.059371372 	1.7578488
0.0033567839 	0.099382555 	0.059371372 	1.7578488
0.0033768844 	0.097637775 	0.014152041 	1.8002192
0.0033969849 	0.092147676 	-0.010583931 	1.8492309
0.0034170854 	0.092147676 	-0.010583931 	1.8492309
0.0034371859 	0.08075234 	0.0061878038 	1.841241
0.0034572864 	0.062210718 	0.015814082 	1.8254758
0.0034773869 	0.055872327 	0.017846232 	1.7786885
0.0034974874 	0.055872327 	0.017846232 	1.7786885
0.0035175879 	0.049896733 	0.01351623 	1.7746135
0.0035376884 	0.045760317 	0.003763903 	1.7843578
0.0035577889 	0.042454812 	0.021790642 	1.7800315
0.0035778894 	0.042454812 	0.021790642 	1.7800315
0.0035979899 	0.041215332 	0.072325516 	1.7750943
0.0036180905 	0.037195588 	0.055863908 	1.7287974
0.003638191 	0.042674842 	0.069825392 	1.6898047
0.0036582915 	0.042674842 	0.069825392 	1.6898047
0.003678392 	0.059290298 	0.087380899 	1.658255
0.0036984925 	0.07244843 	0.056362712 	1.6491112
0.003718593 	0.077370943 	0.047264918 	1.6389155
0.0037386935 	0.072683073 	0.055922544 	1.5887179
0.003758794 	0.076249773 	0.041435918 	1.6181593
0.0037788945 	0.076249773 	0.041435918 	1.6181593
0.003798995 	0.044636707 	0.041687534 	1.8013183
0.0038190955 	0.038469288 	-0.003617429 	1.8654957
0.003839196 	0.061451276 	-0.0064658839 	1.7531277
0.0038592965 	0.076325272 	0.026645436 	1.7160714
0.003879397 	0.079161586 	0.08337451 	1.668127
0.0038994975 	0.049784755 	0.13042681 	1.645225
0.003919598 	0.087310842 	0.26523439 	1.4729094
0.0039396985 	-0.026171939 	0.011469453 	1.3179501
0.003959799 	-0.016553359 	-0.12103743 	0.94063415
0.0039798995 	-0.013545031 	-0.086821099 	0.40518521
0.004 	-0.013545031 	-0.086821099 	0.40518521
