0 	-0.0029818688 	0.00089876701 	2.0438203
2.0100503e-05 	-0.0063887414 	0.0036675058 	2.0608159
4.0201005e-05 	-0.0063887414 	0.0036675058 	2.0608159
6.0301508e-05 	-0.015562101 	-0.010184786 	2.081338
8.040201e-05 	-0.015562101 	-0.010184786 	2.081338
0.00010050251 	-0.015562101 	-0.010184786 	2.081338
0.00012060302 	-0.016986053 	-0.023448905 	2.0569002
0.00014070352 	-0.016986053 	-0.023448905 	2.0569002
0.00016080402 	-0.016986053 	-0.023448905 	2.0569002
0.00018090452 	-0.015928975 	-0.028760611 	2.0693407
0.00020100503 	-0.015928975 	-0.028760611 	2.0693407
0.00022110553 	-0.015928975 	-0.028760611 	2.0693407
0.00024120603 	-0.017601044 	-0.02812017 	2.0823695
0.00026130653 	-0.01281572 	-0.026886881 	2.1028808
0.00028140704 	-0.0085227581 	-0.023085931 	2.0928115
0.00030150754 	-0.0085227581 	-0.023085931 	2.0928115
0.00032160804 	-0.0085227581 	-0.023085931 	2.0928115
0.00034170854 	-0.017353407 	-0.022462649 	2.0293092
0.00036180905 	-0.017353407 	-0.022462649 	2.0293092
0.00038190955 	-0.017353407 	-0.022462649 	2.0293092
0.00040201005 	-0.011697307 	-0.015007978 	2.0301088
0.00042211055 	-0.011697307 	-0.015007978 	2.0301088
0.00044221106 	-0.011697307 	-0.015007978 	2.0301088
0.00046231156 	-0.0045820331 	-0.016834065 	2.0285138
0.00048241206 	-0.0045820331 	-0.016834065 	2.0285138
0.00050251256 	-0.0052148992 	-0.022510786 	2.0273583
0.00052261307 	-0.0052148992 	-0.022510786 	2.0273583
0.00054271357 	-0.0052148992 	-0.022510786 	2.0273583
0.00056281407 	-0.017567928 	-0.025790589 	2.0226769
0.00058291457 	-0.017567928 	-0.025790589 	2.0226769
0.00060301508 	-0.017567928 	-0.025790589 	2.0226769
0.00062311558 	-0.028539814 	-0.021916853 	2.0204752
0.00064321608 	-0.028539814 	-0.021916853 	2.0204752
0.00066331658 	-0.028539814 	-0.021916853 	2.0204752
0.00068341709 	-0.038816871 	-0.0088635615 	2.0262728
0.00070351759 	-0.038816871 	-0.0088635615 	2.0262728
0.00072361809 	-0.03658904 	0.0042009431 	2.0266582
0.00074371859 	-0.03658904 	0.0042009431 	2.0266582
0.0007638191 	-0.035541859 	0.010348222 	2.0336505
0.0007839196 	-0.033978437 	0.01257608 	2.0239555
0.0008040201 	-0.033978437 	0.01257608 	2.0239555
0.0008241206 	-0.033978437 	0.01257608 	2.0239555
0.00084422111 	-0.028405719 	0.00067236775 	2.0043625
0.00086432161 	-0.028405719 	0.00067236775 	2.0043625
0.00088442211 	-0.028405719 	0.00067236775 	2.0043625
0.00090452261 	-0.018538829 	0.0059765259 	2.0043951
0.00092462312 	-0.018538829 	0.0059765259 	2.0043951
0.00094472362 	-0.021199671 	0.0015709058 	2.0054767
0.00096482412 	-0.021199671 	0.0015709058 	2.0054767
0.00098492462 	-0.021199671 	0.0015709058 	2.0054767
0.0010050251 	-0.0087012861 	0.01136166 	2.0150718
0.0010251256 	-0.0087012861 	0.01136166 	2.0150718
0.0010452261 	-0.0087012861 	0.01136166 	2.0150718
0.0010653266 	-0.012917837 	0.0091291972 	2.0028203
0.0010854271 	-0.012917837 	0.0091291972 	2.0028203
0.0011055276 	-0.012917837 	0.0091291972 	2.0028203
0.0011256281 	-7.5225903e-05 	0.0031800548 	2.0069405
0.0011457286 	-7.5225903e-05 	0.0031800548 	2.0069405
0.0011658291 	-7.5225903e-05 	0.0031800548 	2.0069405
0.0011859296 	-0.0053570622 	0.009839573 	2.0179777
0.0012060302 	-0.0053570622 	0.009839573 	2.0179777
0.0012261307 	-0.0053570622 	0.009839573 	2.0179777
0.0012462312 	0.0053587733 	0.0046659638 	1.9913653
0.0012663317 	0.0053587733 	0.0046659638 	1.9913653
0.0012864322 	0.0053587733 	0.0046659638 	1.9913653
0.0013065327 	0.0065207429 	0.0038007154 	1.9762704
0.0013266332 	0.0065207429 	0.0038007154 	1.9762704
0.0013467337 	0.0065207429 	0.0038007154 	1.9762704
0.0013668342 	0.01299687 	0.0065409036 	1.9729803
0.0013869347 	0.01299687 	0.0065409036 	1.9729803
0.0014070352 	0.01299687 	0.0065409036 	1.9729803
0.0014271357 	0.0011333738 	0.016662736 	1.9672084
0.0014472362 	0.0011333738 	0.016662736 	1.9672084
0.0014673367 	0.0011333738 	0.016662736 	1.9672084
0.0014874372 	0.011005247 	0.01613391 	1.9931355
0.0015075377 	0.011005247 	0.01613391 	1.9931355
0.0015276382 	0.020768752 	0.025996041 	1.9690699
0.0015477387 	0.020768752 	0.025996041 	1.9690699
0.0015678392 	0.020768752 	0.025996041 	1.9690699
0.0015879397 	0.015960492 	0.014959977 	1.9856855
0.0016080402 	0.015960492 	0.014959977 	1.9856855
0.0016281407 	0.015960492 	0.014959977 	1.9856855
0.0016482412 	0.0043704697 	0.001224881 	1.9750224
0.0016683417 	0.0043704697 	0.001224881 	1.9750224
0.0016884422 	0.014992034 	-0.0058164988 	1.9848084
0.0017085427 	0.014992034 	-0.0058164988 	1.9848084
0.0017286432 	0.014992034 	-0.0058164988 	1.9848084
0.0017487437 	0.016815343 	-0.01625749 	1.9934507
0.0017688442 	0.016815343 	-0.01625749 	1.9934507
0.0017889447 	0.016815343 	-0.01625749 	1.9934507
0.0018090452 	0.037950661 	-0.0010007947 	1.9735156
0.0018291457 	0.037950661 	-0.0010007947 	1.9735156
0.0018492462 	0.047885216 	0.018870656 	1.9704137
0.0018693467 	0.047885216 	0.018870656 	1.9704137
0.0018894472 	0.047885216 	0.018870656 	1.9704137
0.0019095477 	0.038937798 	0.026422518 	1.9819346
0.0019296482 	0.038937798 	0.026422518 	1.9819346
0.0019497487 	0.044518596 	0.037003837 	1.9916049
0.0019698492 	0.044518596 	0.037003837 	1.9916049
0.0019899497 	0.027711951 	0.062774862 	1.9864561
0.0020100503 	0.027711951 	0.062774862 	1.9864561
0.0020301508 	0.027711951 	0.062774862 	1.9864561
0.0020502513 	0.025619779 	0.054026437 	1.9807802
0.0020703518 	0.025619779 	0.054026437 	1.9807802
0.0020904523 	0.022554561 	0.051782438 	1.9351866
0.0021105528 	0.022554561 	0.051782438 	1.9351866
0.0021306533 	0.022554561 	0.051782438 	1.9351866
0.0021507538 	0.016326255 	0.056112027 	1.9277871
0.0021708543 	0.016326255 	0.056112027 	1.9277871
0.0021909548 	-0.0032204838 	0.058353621 	1.9496878
0.0022110553 	-0.0032204838 	0.058353621 	1.9496878
0.0022311558 	-0.0045122172 	0.046406775 	1.876519
0.0022512563 	-0.0045122172 	0.046406775 	1.876519
0.0022713568 	0.012602348 	0.068938949 	1.9313195
0.0022914573 	0.012602348 	0.068938949 	1.9313195
0.0023115578 	0.012602348 	0.068938949 	1.9313195
0.0023316583 	0.033539246 	0.073414751 	1.9285065
0.0023517588 	0.033539246 	0.073414751 	1.9285065
0.0023718593 	0.042924319 	0.02092618 	2.0056044
0.0023919598 	0.042924319 	0.02092618 	2.0056044
0.0024120603 	0.052498566 	0.0097513787 	2.0289139
0.0024321608 	0.052498566 	0.0097513787 	2.0289139
0.0024522613 	0.053927401 	0.028648595 	1.9739748
0.0024723618 	0.053927401 	0.028648595 	1.9739748
0.0024924623 	0.046726077 	0.058960676 	1.9737223
0.0025125628 	0.046726077 	0.058960676 	1.9737223
0.0025326633 	0.056049348 	0.046492625 	1.9370783
0.0025527638 	0.056049348 	0.046492625 	1.9370783
0.0025728643 	0.060849706 	0.074623072 	1.8290874
0.0025929648 	0.060849706 	0.074623072 	1.8290874
0.0026130653 	0.056868333 	0.074575912 	1.8210468
0.0026331658 	0.056868333 	0.074575912 	1.8210468
0.0026532663 	0.074569065 	0.069996724 	1.8408512
0.0026733668 	0.074569065 	0.069996724 	1.8408512
0.0026934673 	0.074732585 	0.055609585 	1.829777
0.0027135678 	0.074732585 	0.055609585 	1.829777
0.0027336683 	0.087690615 	0.054636948 	1.8258257
0.0027537688 	0.087690615 	0.054636948 	1.8258257
0.0027738693 	0.10013311 	0.064876342 	1.8152061
0.0027939698 	0.10013311 	0.064876342 	1.8152061
0.0028140704 	0.097097278 	0.045122935 	1.8549558
0.0028341709 	0.097097278 	0.045122935 	1.8549558
0.0028542714 	0.07113072 	0.016652561 	1.9318717
0.0028743719 	0.053693707 	-0.0075578414 	1.9421628
0.0028944724 	0.053693707 	-0.0075578414 	1.9421628
0.0029145729 	0.051917173 	0.011463363 	1.9236385
0.0029346734 	0.051917173 	0.011463363 	1.9236385
0.0029547739 	0.032387004 	0.047848203 	1.8885804
0.0029748744 	0.032387004 	0.047848203 	1.8885804
0.0029949749 	0.010562929 	0.079509262 	1.8643433
0.0030150754 	-0.0045375321 	0.071786987 	1.8778659
0.0030351759 	-0.0045375321 	0.071786987 	1.8778659
0.0030552764 	-0.0079789344 	0.07866504 	1.8528389
0.0030753769 	-0.0079789344 	0.07866504 	1.8528389
0.0030954774 	-0.0093783552 	0.07098688 	1.8271578
0.0031155779 	-0.01402513 	0.044842275 	1.8001542
0.0031356784 	-0.01402513 	0.044842275 	1.8001542
0.0031557789 	-0.0047438454 	0.048187322 	1.7704421
0.0031758794 	-0.0047438454 	0.048187322 	1.7704421
0.0031959799 	-0.0084398051 	0.079003064 	1.695293
0.0032160804 	-0.024283521 	0.063448357 	1.7024343
0.0032361809 	-0.024283521 	0.063448357 	1.7024343
0.0032562814 	-0.04557963 	-0.030368661 	1.7722657
0.0032763819 	-0.05700067 	-0.1221297 	1.7926479
0.0032964824 	-0.05700067 	-0.1221297 	1.7926479
0.0033165829 	-0.073846405 	-0.15488458 	1.7531296
0.0033366834 	-0.09472319 	-0.15533273 	1.6925242
0.0033567839 	-0.09472319 	-0.15533273 	1.6925242
0.0033768844 	-0.090871076 	-0.16759599 	1.6475393
0.0033969849 	-0.1272046 	-0.20724175 	1.7393919
0.0034170854 	-0.1272046 	-0.20724175 	1.7393919
0.0034371859 	-0.15896942 	-0.12825507 	1.9051304
0.0034572864 	-0.13020111 	-0.081321832 	1.899444
0.0034773869 	-0.15348845 	-0.15017832 	1.8624541
0.0034974874 	-0.15348845 	-0.15017832 	1.8624541
0.0035175879 	-0.15113495 	-0.1385993 	1.8588316
0.0035376884 	-0.13465418 	-0.11404166 	1.8283525
0.0035577889 	-0.12903205 	-0.078329883 	1.748955
0.0035778894 	-0.12903205 	-0.078329883 	1.748955
0.0035979899 	-0.11538831 	-0.026464831 	1.7025439
0.0036180905 	-0.10553179 	0.047649463 	1.6692871
0.003638191 	-0.097226235 	0.15127759 	1.6712645
0.0036582915 	-0.097226235 	0.15127759 	1.6712645
0.003678392 	-0.096978886 	0.1859854 	1.6978046
0.0036984925 	-0.094705118 	0.16768421 	1.691179
0.003718593 	-0.098080673 	0.1343601 	1.6060255
0.0037386935 	-0.09415307 	0.08045065 	1.5147478
0.003758794 	-0.082994746 	-0.01001461 	1.4821358
0.0037788945 	-0.082994746 	-0.01001461 	1.4821358
0.003798995 	-0.08475355 	-0.14323235 	1.5404448
0.0038190955 	-0.098888768 	-0.21260815 	1.5854442
0.003839196 	-0.078186341 	-0.17537424 	1.5735633
0.0038592965 	-0.090463467 	-0.1432123 	1.5107637
0.003879397 	-0.091924842 	-0.043048729 	1.5299587
0.0038994975 	-0.068946876 	0.045874163 	1.3993543
0.003919598 	-0.053687105 	0.2537536 	1.2731769
0.0039396985 	-0.067347983 	0.011198342 	1.1772244
0.003959799 	-0.023631495 	-0.1693801 	0.43025468
0.0039798995 	-0.024794143 	-0.079365513 	0.47442605
0.004 	-0.024794143 	-0.079365513 	0.47442605
