0 	0.0070818674 	-0.0013515829 	2.049305
2.0100503e-05 	-0.011347572 	0.0045616598 	2.0471958
4.0201005e-05 	-0.011347572 	0.0045616598 	2.0471958
6.0301508e-05 	-0.025397844 	-0.0085081801 	2.0472678
8.040201e-05 	-0.025397844 	-0.0085081801 	2.0472678
0.00010050251 	-0.025397844 	-0.0085081801 	2.0472678
0.00012060302 	-0.020052487 	-0.01383594 	2.037714
0.00014070352 	-0.020052487 	-0.01383594 	2.037714
0.00016080402 	-0.020052487 	-0.01383594 	2.037714
0.00018090452 	-0.028264277 	-0.01407298 	2.0299726
0.00020100503 	-0.028264277 	-0.01407298 	2.0299726
0.00022110553 	-0.028264277 	-0.01407298 	2.0299726
0.00024120603 	-0.030733647 	-0.013733609 	2.0505603
0.00026130653 	-0.030733647 	-0.013733609 	2.0505603
0.00028140704 	-0.039320651 	-0.013788638 	2.0645924
0.00030150754 	-0.039320651 	-0.013788638 	2.0645924
0.00032160804 	-0.039320651 	-0.013788638 	2.0645924
0.00034170854 	-0.044935233 	-0.023193219 	2.0549458
0.00036180905 	-0.044935233 	-0.023193219 	2.0549458
0.00038190955 	-0.044935233 	-0.023193219 	2.0549458
0.00040201005 	-0.040955982 	-0.024746395 	2.0495462
0.00042211055 	-0.040955982 	-0.024746395 	2.0495462
0.00044221106 	-0.040955982 	-0.024746395 	2.0495462
0.00046231156 	-0.045964172 	-0.023243296 	2.051542
0.00048241206 	-0.045964172 	-0.023243296 	2.051542
0.00050251256 	-0.041829993 	-0.013162914 	2.0550795
0.00052261307 	-0.041829993 	-0.013162914 	2.0550795
0.00054271357 	-0.041829993 	-0.013162914 	2.0550795
0.00056281407 	-0.041157218 	-0.018867597 	2.0548605
0.00058291457 	-0.041157218 	-0.018867597 	2.0548605
0.00060301508 	-0.041157218 	-0.018867597 	2.0548605
0.00062311558 	-0.049526204 	-0.016133862 	2.0092063
0.00064321608 	-0.049526204 	-0.016133862 	2.0092063
0.00066331658 	-0.049526204 	-0.016133862 	2.0092063
0.00068341709 	-0.051985535 	-0.0031264397 	1.9971901
0.00070351759 	-0.051985535 	-0.0031264397 	1.9971901
0.00072361809 	-0.048201404 	0.0024930218 	2.0391563
0.00074371859 	-0.048201404 	0.0024930218 	2.0391563
0.0007638191 	-0.048201404 	0.0024930218 	2.0391563
0.0007839196 	-0.048802333 	-0.0042640162 	2.0563259
0.0008040201 	-0.048802333 	-0.0042640162 	2.0563259
0.0008241206 	-0.048802333 	-0.0042640162 	2.0563259
0.00084422111 	-0.039122607 	-0.0080910628 	2.0665011
0.00086432161 	-0.039122607 	-0.0080910628 	2.0665011
0.00088442211 	-0.039122607 	-0.0080910628 	2.0665011
0.00090452261 	-0.030019382 	0.003950386 	2.060791
0.00092462312 	-0.030019382 	0.003950386 	2.060791
0.00094472362 	-0.011731003 	0.018168909 	2.0419878
0.00096482412 	-0.011731003 	0.018168909 	2.0419878
0.00098492462 	-0.011731003 	0.018168909 	2.0419878
0.0010050251 	-0.0071622118 	0.036184218 	2.0857982
0.0010251256 	-0.0071622118 	0.036184218 	2.0857982
0.0010452261 	-0.0071622118 	0.036184218 	2.0857982
0.0010653266 	-0.0070400345 	0.023897791 	2.0170515
0.0010854271 	-0.0070400345 	0.023897791 	2.0170515
0.0011055276 	-0.0070400345 	0.023897791 	2.0170515
0.0011256281 	-0.014727266 	0.028883428 	1.9836578
0.0011457286 	-0.014727266 	0.028883428 	1.9836578
0.0011658291 	-0.014727266 	0.028883428 	1.9836578
0.0011859296 	-0.025559424 	0.018120358 	1.9696746
0.0012060302 	-0.025559424 	0.018120358 	1.9696746
0.0012261307 	-0.025559424 	0.018120358 	1.9696746
0.0012462312 	-0.01710348 	-0.0009239102 	1.9647546
0.0012663317 	-0.01710348 	-0.0009239102 	1.9647546
0.0012864322 	-0.01710348 	-0.0009239102 	1.9647546
0.0013065327 	-0.017820199 	0.023600027 	1.9604063
0.0013266332 	-0.017820199 	0.023600027 	1.9604063
0.0013467337 	-0.017820199 	0.023600027 	1.9604063
0.0013668342 	-0.01687108 	0.046938284 	1.9686039
0.0013869347 	-0.01687108 	0.046938284 	1.9686039
0.0014070352 	-0.01687108 	0.046938284 	1.9686039
0.0014271357 	-0.018958297 	0.052316328 	1.984906
0.0014472362 	-0.018958297 	0.052316328 	1.984906
0.0014673367 	-0.018958297 	0.052316328 	1.984906
0.0014874372 	-0.010531589 	0.068673826 	1.9815133
0.0015075377 	-0.010531589 	0.068673826 	1.9815133
0.0015276382 	-0.015356086 	0.051784803 	1.9623922
0.0015477387 	-0.015356086 	0.051784803 	1.9623922
0.0015678392 	-0.015356086 	0.051784803 	1.9623922
0.0015879397 	-7.3327056e-05 	0.043146469 	1.9661064
0.0016080402 	-7.3327056e-05 	0.043146469 	1.9661064
0.0016281407 	-7.3327056e-05 	0.043146469 	1.9661064
0.0016482412 	-0.0059687439 	0.034868562 	1.9654274
0.0016683417 	-0.0059687439 	0.034868562 	1.9654274
0.0016884422 	-0.0070152353 	0.010920557 	1.955882
0.0017085427 	-0.0070152353 	0.010920557 	1.955882
0.0017286432 	-0.0070152353 	0.010920557 	1.955882
0.0017487437 	0.01108354 	-0.0071353883 	1.934714
0.0017688442 	0.01108354 	-0.0071353883 	1.934714
0.0017889447 	0.01108354 	-0.0071353883 	1.934714
0.0018090452 	0.024354988 	-0.013397355 	1.9127909
0.0018291457 	0.024354988 	-0.013397355 	1.9127909
0.0018492462 	0.013546491 	0.0023906051 	1.8914579
0.0018693467 	0.013546491 	0.0023906051 	1.8914579
0.0018894472 	0.013546491 	0.0023906051 	1.8914579
0.0019095477 	-0.008245921 	0.03607532 	1.8993771
0.0019296482 	-0.008245921 	0.03607532 	1.8993771
0.0019497487 	-0.006347405 	0.066956001 	1.8976345
0.0019698492 	-0.006347405 	0.066956001 	1.8976345
0.0019899497 	-0.006347405 	0.066956001 	1.8976345
0.0020100503 	-0.0071345555 	0.081511455 	1.8946852
0.0020301508 	-0.0071345555 	0.081511455 	1.8946852
0.0020502513 	-0.0056180222 	0.047595498 	1.8789716
0.0020703518 	-0.0056180222 	0.047595498 	1.8789716
0.0020904523 	0.01601261 	-0.011426284 	1.8670027
0.0021105528 	0.01601261 	-0.011426284 	1.8670027
0.0021306533 	0.01601261 	-0.011426284 	1.8670027
0.0021507538 	0.030014619 	-0.025337763 	1.8476709
0.0021708543 	0.030014619 	-0.025337763 	1.8476709
0.0021909548 	0.047928913 	-0.041054813 	1.8390673
0.0022110553 	0.047928913 	-0.041054813 	1.8390673
0.0022311558 	0.045624717 	-0.045952892 	1.8819631
0.0022512563 	0.045624717 	-0.045952892 	1.8819631
0.0022713568 	0.035113325 	-0.033520923 	1.9042036
0.0022914573 	0.035113325 	-0.033520923 	1.9042036
0.0023115578 	0.035113325 	-0.033520923 	1.9042036
0.0023316583 	0.026434504 	-0.01619946 	1.9344646
0.0023517588 	0.026434504 	-0.01619946 	1.9344646
0.0023718593 	0.018943022 	0.0022026987 	1.9343298
0.0023919598 	0.018943022 	0.0022026987 	1.9343298
0.0024120603 	0.032910246 	0.031685407 	1.8842024
0.0024321608 	0.032910246 	0.031685407 	1.8842024
0.0024522613 	0.029435408 	0.054979242 	1.9090593
0.0024723618 	0.029435408 	0.054979242 	1.9090593
0.0024924623 	0.027901002 	0.054645583 	1.9240505
0.0025125628 	0.027901002 	0.054645583 	1.9240505
0.0025326633 	0.015812997 	0.079126715 	1.8851271
0.0025527638 	0.015812997 	0.079126715 	1.8851271
0.0025728643 	0.0062109764 	0.077552914 	1.9018625
0.0025929648 	0.0062109764 	0.077552914 	1.9018625
0.0026130653 	0.0037516657 	0.025063592 	1.9011241
0.0026331658 	0.0037516657 	0.025063592 	1.9011241
0.0026532663 	-0.0093957178 	-0.028647685 	1.8664607
0.0026733668 	-0.0093957178 	-0.028647685 	1.8664607
0.0026934673 	-0.024943086 	-0.074430289 	1.8802401
0.0027135678 	-0.024943086 	-0.074430289 	1.8802401
0.0027336683 	-0.033630948 	-0.053872484 	1.9228056
0.0027537688 	-0.033630948 	-0.053872484 	1.9228056
0.0027738693 	-0.036657135 	-0.011616761 	1.9308566
0.0027939698 	-0.036657135 	-0.011616761 	1.9308566
0.0028140704 	-0.024903719 	-0.018568164 	1.8191594
0.0028341709 	-0.024903719 	-0.018568164 	1.8191594
0.0028542714 	-0.0093928669 	-0.041424184 	1.7772309
0.0028743719 	0.0057930632 	-0.025358395 	1.8474927
0.0028944724 	0.0057930632 	-0.025358395 	1.8474927
0.0029145729 	0.014837046 	0.009116832 	1.953664
0.0029346734 	0.014837046 	0.009116832 	1.953664
0.0029547739 	0.017532073 	0.0076074147 	1.9256874
0.0029748744 	0.017532073 	0.0076074147 	1.9256874
0.0029949749 	0.030175398 	0.044186643 	1.9557809
0.0030150754 	0.037662503 	0.054752948 	1.9404992
0.0030351759 	0.037662503 	0.054752948 	1.9404992
0.0030552764 	0.04127897 	0.075830322 	1.9180619
0.0030753769 	0.04127897 	0.075830322 	1.9180619
0.0030954774 	0.039691357 	0.09130056 	1.9326807
0.0031155779 	0.035244149 	0.075839782 	1.9191143
0.0031356784 	0.035244149 	0.075839782 	1.9191143
0.0031557789 	0.031470567 	0.024780568 	1.8530249
0.0031758794 	0.031470567 	0.024780568 	1.8530249
0.0031959799 	0.028209635 	-0.0047985011 	1.8135204
0.0032160804 	0.023493294 	-0.005175338 	1.8468034
0.0032361809 	0.023493294 	-0.005175338 	1.8468034
0.0032562814 	0.018294197 	-0.0078072716 	1.8452851
0.0032763819 	0.021757632 	0.048275025 	1.785809
0.0032964824 	0.021757632 	0.048275025 	1.785809
0.0033165829 	0.01435701 	0.075438778 	1.806047
0.0033366834 	0.00080618193 	0.032421235 	1.8610118
0.0033567839 	0.00080618193 	0.032421235 	1.8610118
0.0033768844 	-0.0058104682 	0.0035626931 	1.8789851
0.0033969849 	1.6505089e-05 	-0.02314136 	1.8310313
0.0034170854 	1.6505089e-05 	-0.02314136 	1.8310313
0.0034371859 	0.0078261243 	-0.014738148 	1.7944419
0.0034572864 	0.017460366 	-0.00670015 	1.8291538
0.0034773869 	0.025399979 	-0.026615892 	1.8194411
0.0034974874 	0.025399979 	-0.026615892 	1.8194411
0.0035175879 	0.039623756 	-0.031925605 	1.7783556
0.0035376884 	0.049670079 	-0.0085057601 	1.7273934
0.0035577889 	0.052972966 	-0.014173652 	1.675071
0.0035778894 	0.052972966 	-0.014173652 	1.675071
0.0035979899 	0.05243893 	-0.087678664 	1.6576871
0.0036180905 	0.03496379 	-0.16403654 	1.6812892
0.003638191 	0.015592183 	-0.14406063 	1.661508
0.0036582915 	0.015592183 	-0.14406063 	1.661508
0.003678392 	0.008735272 	-0.093741593 	1.6604871
0.0036984925 	0.01064928 	-0.046208862 	1.6908954
0.003718593 	0.017093161 	0.011689203 	1.673994
0.0037386935 	0.015250333 	0.059111059 	1.664435
0.003758794 	0.01132547 	0.092451072 	1.5989003
0.0037788945 	0.01132547 	0.092451072 	1.5989003
0.003798995 	0.013390179 	0.12437456 	1.49436
0.0038190955 	0.0036283372 	0.1870625 	1.3882247
0.003839196 	-0.011678629 	0.22067937 	1.315569
0.0038592965 	-0.021128576 	0.24599322 	1.289804
0.003879397 	-0.01685325 	0.210396 	1.3284228
0.0038994975 	-0.020057609 	0.048616479 	1.3441099
0.003919598 	-0.006893966 	-0.04138832 	1.3453999
0.0039396985 	-0.020383593 	-0.22739421 	1.4742871
0.003959799 	0.0020533443 	-0.081213768 	0.99200323
0.0039798995 	0.0073576807 	-0.097351914 	0.59735645
0.004 	0.0073576807 	-0.097351914 	0.59735645
