0 	-0.006297179 	0.035058658 	2.1167885
2.0100503e-05 	-0.006297179 	0.035058658 	2.1167885
4.0201005e-05 	-0.006297179 	0.035058658 	2.1167885
6.0301508e-05 	-0.019866087 	0.032846886 	2.1207214
8.040201e-05 	-0.019866087 	0.032846886 	2.1207214
0.00010050251 	-0.019866087 	0.032846886 	2.1207214
0.00012060302 	-0.025610453 	0.03505392 	2.1209646
0.00014070352 	-0.025610453 	0.03505392 	2.1209646
0.00016080402 	-0.025610453 	0.03505392 	2.1209646
0.00018090452 	-0.037583234 	0.026688131 	2.1136331
0.00020100503 	-0.037583234 	0.026688131 	2.1136331
0.00022110553 	-0.037583234 	0.026688131 	2.1136331
0.00024120603 	-0.039175904 	0.025832568 	2.1103481
0.00026130653 	-0.027527567 	0.032927489 	2.1177081
0.00028140704 	-0.033192095 	0.041730312 	2.1057147
0.00030150754 	-0.033192095 	0.041730312 	2.1057147
0.00032160804 	-0.033192095 	0.041730312 	2.1057147
0.00034170854 	-0.042784548 	0.055596717 	2.0827016
0.00036180905 	-0.042784548 	0.055596717 	2.0827016
0.00038190955 	-0.042784548 	0.055596717 	2.0827016
0.00040201005 	-0.052602521 	0.058611175 	2.0443396
0.00042211055 	-0.052602521 	0.058611175 	2.0443396
0.00044221106 	-0.052602521 	0.058611175 	2.0443396
0.00046231156 	-0.063042685 	0.043227792 	2.007695
0.00048241206 	-0.063042685 	0.043227792 	2.007695
0.00050251256 	-0.072728669 	0.028457497 	1.9989843
0.00052261307 	-0.072728669 	0.028457497 	1.9989843
0.00054271357 	-0.072728669 	0.028457497 	1.9989843
0.00056281407 	-0.073447647 	0.026120996 	2.0024127
0.00058291457 	-0.073447647 	0.026120996 	2.0024127
0.00060301508 	-0.065402613 	0.020822382 	2.0196767
0.00062311558 	-0.060622037 	0.034801703 	2.0389365
0.00064321608 	-0.060622037 	0.034801703 	2.0389365
0.00066331658 	-0.060622037 	0.034801703 	2.0389365
0.00068341709 	-0.054610929 	0.044023614 	2.0338477
0.00070351759 	-0.054610929 	0.044023614 	2.0338477
0.00072361809 	-0.052332176 	0.04148476 	2.0149097
0.00074371859 	-0.052332176 	0.04148476 	2.0149097
0.0007638191 	-0.052332176 	0.04148476 	2.0149097
0.0007839196 	-0.04910841 	0.040618513 	2.0059112
0.0008040201 	-0.04910841 	0.040618513 	2.0059112
0.0008241206 	-0.040193942 	0.040052498 	2.0015931
0.00084422111 	-0.031953464 	0.042072769 	2.0031072
0.00086432161 	-0.031953464 	0.042072769 	2.0031072
0.00088442211 	-0.031953464 	0.042072769 	2.0031072
0.00090452261 	-0.046015643 	0.033739754 	1.9591624
0.00092462312 	-0.027787984 	0.034659402 	1.9955801
0.00094472362 	-0.027736538 	0.017360154 	2.0079668
0.00096482412 	-0.027736538 	0.017360154 	2.0079668
0.00098492462 	-0.027736538 	0.017360154 	2.0079668
0.0010050251 	-0.030326309 	0.022951793 	1.954137
0.0010251256 	-0.030326309 	0.022951793 	1.954137
0.0010452261 	-0.030326309 	0.022951793 	1.954137
0.0010653266 	-0.017979797 	0.012909307 	1.9540204
0.0010854271 	-0.017979797 	0.012909307 	1.9540204
0.0011055276 	-0.017979797 	0.012909307 	1.9540204
0.0011256281 	-0.020733658 	0.02910621 	1.9611857
0.0011457286 	-0.020733658 	0.02910621 	1.9611857
0.0011658291 	-0.023215596 	0.031913947 	1.970646
0.0011859296 	-0.01716852 	0.073077095 	1.9802655
0.0012060302 	-0.01716852 	0.073077095 	1.9802655
0.0012261307 	-0.023448078 	0.067347457 	1.9652261
0.0012462312 	-0.026567111 	0.076011844 	1.9752123
0.0012663317 	-0.026567111 	0.076011844 	1.9752123
0.0012864322 	-0.026567111 	0.076011844 	1.9752123
0.0013065327 	-0.029924392 	0.052236052 	1.9526525
0.0013266332 	-0.029924392 	0.052236052 	1.9526525
0.0013467337 	-0.029924392 	0.052236052 	1.9526525
0.0013668342 	-0.018318322 	0.03317825 	1.9601816
0.0013869347 	-0.018318322 	0.03317825 	1.9601816
0.0014070352 	-0.018318322 	0.03317825 	1.9601816
0.0014271357 	-0.016142863 	0.024370904 	1.968683
0.0014472362 	-0.016142863 	0.024370904 	1.968683
0.0014673367 	-0.016142863 	0.024370904 	1.968683
0.0014874372 	-0.019192135 	0.034841979 	1.9335845
0.0015075377 	-0.019192135 	0.034841979 	1.9335845
0.0015276382 	-0.034175504 	0.038001486 	1.8826362
0.0015477387 	-0.034175504 	0.038001486 	1.8826362
0.0015678392 	-0.034175504 	0.038001486 	1.8826362
0.0015879397 	-0.029615868 	0.047765748 	1.9132589
0.0016080402 	-0.029615868 	0.047765748 	1.9132589
0.0016281407 	-0.029615868 	0.047765748 	1.9132589
0.0016482412 	-0.027643199 	0.059904086 	1.9820177
0.0016683417 	-0.027643199 	0.059904086 	1.9820177
0.0016884422 	-0.0090900357 	0.066146363 	1.9919018
0.0017085427 	-0.0090900357 	0.066146363 	1.9919018
0.0017286432 	-0.0090900357 	0.066146363 	1.9919018
0.0017487437 	0.0048113855 	0.047772536 	1.9451186
0.0017688442 	0.0048113855 	0.047772536 	1.9451186
0.0017889447 	0.0048113855 	0.047772536 	1.9451186
0.0018090452 	0.011297817 	0.046502154 	1.9493171
0.0018291457 	0.011297817 	0.046502154 	1.9493171
0.0018492462 	0.019454461 	0.053332611 	1.9450448
0.0018693467 	0.019454461 	0.053332611 	1.9450448
0.0018894472 	0.019454461 	0.053332611 	1.9450448
0.0019095477 	0.029847917 	0.072861824 	1.9614427
0.0019296482 	0.029847917 	0.072861824 	1.9614427
0.0019497487 	0.048017448 	0.051543041 	1.9434935
0.0019698492 	0.048017448 	0.051543041 	1.9434935
0.0019899497 	0.039851143 	0.037040657 	1.9305012
0.0020100503 	0.039851143 	0.037040657 	1.9305012
0.0020301508 	0.039851143 	0.037040657 	1.9305012
0.0020502513 	0.020084493 	0.025563473 	1.9047176
0.0020703518 	0.020084493 	0.025563473 	1.9047176
0.0020904523 	0.0041358973 	0.02181642 	1.8663445
0.0021105528 	0.0041358973 	0.02181642 	1.8663445
0.0021306533 	0.0041358973 	0.02181642 	1.8663445
0.0021507538 	-0.014361638 	0.018711267 	1.8580667
0.0021708543 	-0.014361638 	0.018711267 	1.8580667
0.0021909548 	-0.035785699 	0.010552139 	1.8424115
0.0022110553 	-0.035785699 	0.010552139 	1.8424115
0.0022311558 	-0.016125013 	0.0013552514 	1.9106647
0.0022512563 	-0.016125013 	0.0013552514 	1.9106647
0.0022713568 	-0.018314412 	-0.0028141264 	1.9557851
0.0022914573 	-0.018314412 	-0.0028141264 	1.9557851
0.0023115578 	-0.018314412 	-0.0028141264 	1.9557851
0.0023316583 	0.0031743434 	-0.010906551 	1.992695
0.0023517588 	0.0031743434 	-0.010906551 	1.992695
0.0023718593 	0.005956041 	-0.015921518 	1.9875038
0.0023919598 	0.005956041 	-0.015921518 	1.9875038
0.0024120603 	0.016474667 	-0.014184421 	1.9900505
0.0024321608 	0.016474667 	-0.014184421 	1.9900505
0.0024522613 	0.023902871 	-0.037842307 	2.0016508
0.0024723618 	0.023902871 	-0.037842307 	2.0016508
0.0024924623 	0.039204022 	-0.036864856 	2.0105917
0.0025125628 	0.039204022 	-0.036864856 	2.0105917
0.0025326633 	0.052391985 	-0.031777958 	2.0221108
0.0025527638 	0.052391985 	-0.031777958 	2.0221108
0.0025728643 	0.063284605 	-0.051944191 	1.9684695
0.0025929648 	0.063284605 	-0.051944191 	1.9684695
0.0026130653 	0.05520983 	-0.042312526 	1.9291257
0.0026331658 	0.05520983 	-0.042312526 	1.9291257
0.0026532663 	0.07066213 	-0.026327642 	1.9003424
0.0026733668 	0.07066213 	-0.026327642 	1.9003424
0.0026934673 	0.08030714 	-0.015068079 	1.9085501
0.0027135678 	0.08030714 	-0.015068079 	1.9085501
0.0027336683 	0.086607348 	-0.014372964 	1.9604955
0.0027537688 	0.086607348 	-0.014372964 	1.9604955
0.0027738693 	0.084305108 	-0.038347051 	1.9332527
0.0027939698 	0.084305108 	-0.038347051 	1.9332527
0.0028140704 	0.074278686 	-0.055704755 	1.8468391
0.0028341709 	0.074278686 	-0.055704755 	1.8468391
0.0028542714 	0.069171985 	-0.037946854 	1.9489672
0.0028743719 	0.084419649 	-0.0096690312 	1.919421
0.0028944724 	0.084419649 	-0.0096690312 	1.919421
0.0029145729 	0.083324244 	0.039007171 	1.8680935
0.0029346734 	0.083324244 	0.039007171 	1.8680935
0.0029547739 	0.078913567 	0.052510679 	1.887829
0.0029748744 	0.078913567 	0.052510679 	1.887829
0.0029949749 	0.081237733 	0.010027502 	1.8620528
0.0030150754 	0.036095411 	0.016075688 	1.8418606
0.0030351759 	0.036095411 	0.016075688 	1.8418606
0.0030552764 	0.029351755 	0.012683131 	1.7944612
0.0030753769 	0.029351755 	0.012683131 	1.7944612
0.0030954774 	0.053502243 	-0.06300838 	1.7805936
0.0031155779 	0.050653058 	-0.097849414 	1.6625262
0.0031356784 	0.050653058 	-0.097849414 	1.6625262
0.0031557789 	0.051411548 	-0.062633124 	1.7012648
0.0031758794 	0.051411548 	-0.062633124 	1.7012648
0.0031959799 	0.033200509 	-0.095497124 	1.7380927
0.0032160804 	0.023481275 	-0.090039842 	1.7768144
0.0032361809 	0.023481275 	-0.090039842 	1.7768144
0.0032562814 	0.0087094967 	-0.081139517 	1.7705983
0.0032763819 	-0.016439235 	-0.071065943 	1.7282862
0.0032964824 	-0.016439235 	-0.071065943 	1.7282862
0.0033165829 	-0.035216424 	-0.075911869 	1.7590638
0.0033366834 	-0.066254844 	-0.082937125 	1.794777
0.0033567839 	-0.066254844 	-0.082937125 	1.794777
0.0033768844 	-0.071390738 	-0.058650175 	1.8004955
0.0033969849 	-0.057556805 	-0.049922572 	1.7227896
0.0034170854 	-0.057556805 	-0.049922572 	1.7227896
0.0034371859 	-0.041841601 	-0.037462174 	1.7947112
0.0034572864 	-0.026769481 	-0.0083504878 	1.8462581
0.0034773869 	-0.015742882 	-0.010678074 	1.864252
0.0034974874 	-0.015742882 	-0.010678074 	1.864252
0.0035175879 	-0.023663233 	-0.027166501 	1.8725386
0.0035376884 	-0.027451225 	-0.022464965 	1.8916189
0.0035577889 	-0.02835346 	0.02360963 	1.8797424
0.0035778894 	-0.02835346 	0.02360963 	1.8797424
0.0035979899 	-0.013880461 	0.027007446 	1.8506791
0.0036180905 	0.0039994652 	-0.0061552374 	1.8060729
0.003638191 	0.019470005 	-0.030715587 	1.7950733
0.0036582915 	0.019470005 	-0.030715587 	1.7950733
0.003678392 	0.033548584 	-0.056516792 	1.792462
0.0036984925 	0.03845656 	-0.069703916 	1.7804941
0.003718593 	0.049885751 	-0.053991258 	1.7551965
0.0037386935 	0.05841635 	-0.026776312 	1.725949
0.003758794 	0.055397115 	0.017570983 	1.682291
0.0037788945 	0.055397115 	0.017570983 	1.682291
0.003798995 	0.044790404 	0.033034133 	1.6532594
0.0038190955 	0.048454268 	0.06067691 	1.6826893
0.003839196 	0.060893356 	-0.056909524 	1.7296973
0.0038592965 	0.059486817 	-0.093206461 	1.7250136
0.003879397 	0.050581547 	-0.066388699 	1.7204813
0.0038994975 	0.021503368 	-0.25627023 	1.5634732
0.003919598 	-0.014359856 	-0.15633261 	1.556619
0.0039396985 	-0.0275145 	0.09112895 	1.429218
0.003959799 	0.011764252 	0.093109998 	1.1825396
0.0039798995 	-0.0029695245 	0.24480503 	0.51461485
0.004 	-0.0029695245 	0.24480503 	0.51461485
