0 	-0.0022790952 	-0.015735777 	2.1244737
2.0100503e-05 	0.011440396 	-0.0017318943 	2.1214608
4.0201005e-05 	0.011440396 	-0.0017318943 	2.1214608
6.0301508e-05 	0.023574594 	-1.1700752e-06 	2.1019073
8.040201e-05 	0.023574594 	-1.1700752e-06 	2.1019073
0.00010050251 	0.023574594 	-1.1700752e-06 	2.1019073
0.00012060302 	0.02159215 	0.016982415 	2.0871819
0.00014070352 	0.02159215 	0.016982415 	2.0871819
0.00016080402 	0.02159215 	0.016982415 	2.0871819
0.00018090452 	0.017393111 	0.029607174 	2.0539249
0.00020100503 	0.017393111 	0.029607174 	2.0539249
0.00022110553 	0.017393111 	0.029607174 	2.0539249
0.00024120603 	0.011703591 	0.023875513 	2.0263501
0.00026130653 	0.011703591 	0.023875513 	2.0263501
0.00028140704 	0.0034808003 	0.0067325866 	2.040171
0.00030150754 	0.0034808003 	0.0067325866 	2.040171
0.00032160804 	0.0034808003 	0.0067325866 	2.040171
0.00034170854 	-0.0014440848 	-0.00077744783 	2.0575906
0.00036180905 	-0.0014440848 	-0.00077744783 	2.0575906
0.00038190955 	-0.0014440848 	-0.00077744783 	2.0575906
0.00040201005 	-0.00021430492 	0.0019603419 	2.0594942
0.00042211055 	-0.00021430492 	0.0019603419 	2.0594942
0.00044221106 	-0.00021430492 	0.0019603419 	2.0594942
0.00046231156 	0.0018833352 	0.0016852034 	2.0521937
0.00048241206 	0.0018833352 	0.0016852034 	2.0521937
0.00050251256 	-0.001671473 	-0.011540095 	2.0620901
0.00052261307 	-0.001671473 	-0.011540095 	2.0620901
0.00054271357 	-0.001671473 	-0.011540095 	2.0620901
0.00056281407 	-0.002295373 	-0.026656847 	2.0480225
0.00058291457 	-0.002295373 	-0.026656847 	2.0480225
0.00060301508 	-0.002295373 	-0.026656847 	2.0480225
0.00062311558 	-0.0048818914 	-0.035014129 	2.0512371
0.00064321608 	-0.0048818914 	-0.035014129 	2.0512371
0.00066331658 	0.008268195 	-0.029657133 	2.0329986
0.00068341709 	0.012581012 	-0.026792091 	2.0275728
0.00070351759 	0.012581012 	-0.026792091 	2.0275728
0.00072361809 	0.016810228 	-0.022060988 	2.0264825
0.00074371859 	0.016810228 	-0.022060988 	2.0264825
0.0007638191 	0.016810228 	-0.022060988 	2.0264825
0.0007839196 	0.011031691 	-0.022743386 	2.027484
0.0008040201 	0.011031691 	-0.022743386 	2.027484
0.0008241206 	0.011031691 	-0.022743386 	2.027484
0.00084422111 	0.018301484 	-0.015404409 	2.024154
0.00086432161 	0.018301484 	-0.015404409 	2.024154
0.00088442211 	0.018301484 	-0.015404409 	2.024154
0.00090452261 	0.010845546 	-0.027932976 	1.9822802
0.00092462312 	0.010845546 	-0.027932976 	1.9822802
0.00094472362 	0.018393666 	-0.027270109 	1.9810698
0.00096482412 	0.018393666 	-0.027270109 	1.9810698
0.00098492462 	0.033454082 	-0.011351583 	2.0038304
0.0010050251 	0.023701628 	-0.027879676 	1.9872096
0.0010251256 	0.023701628 	-0.027879676 	1.9872096
0.0010452261 	0.023701628 	-0.027879676 	1.9872096
0.0010653266 	0.041089602 	-0.0087715568 	2.0023347
0.0010854271 	0.041089602 	-0.0087715568 	2.0023347
0.0011055276 	0.041089602 	-0.0087715568 	2.0023347
0.0011256281 	0.04116574 	0.013492431 	1.9624732
0.0011457286 	0.04116574 	0.013492431 	1.9624732
0.0011658291 	0.04116574 	0.013492431 	1.9624732
0.0011859296 	0.041290371 	0.0023637968 	1.9680584
0.0012060302 	0.054826072 	0.023555956 	1.9614027
0.0012261307 	0.054826072 	0.023555956 	1.9614027
0.0012462312 	0.045828334 	-0.0057703084 	1.9878511
0.0012663317 	0.045828334 	-0.0057703084 	1.9878511
0.0012864322 	0.045828334 	-0.0057703084 	1.9878511
0.0013065327 	0.048095113 	-0.029063064 	2.0741312
0.0013266332 	0.048095113 	-0.029063064 	2.0741312
0.0013467337 	0.048095113 	-0.029063064 	2.0741312
0.0013668342 	0.044639349 	-0.013712496 	1.9980751
0.0013869347 	0.044639349 	-0.013712496 	1.9980751
0.0014070352 	0.044639349 	-0.013712496 	1.9980751
0.0014271357 	0.065380592 	0.01077854 	2.0022856
0.0014472362 	0.058882914 	-0.0049865133 	1.9908653
0.0014673367 	0.058882914 	-0.0049865133 	1.9908653
0.0014874372 	0.044409228 	0.030939106 	2.0278575
0.0015075377 	0.044409228 	0.030939106 	2.0278575
0.0015276382 	0.042856629 	0.046720618 	1.9399586
0.0015477387 	0.042856629 	0.046720618 	1.9399586
0.0015678392 	0.042856629 	0.046720618 	1.9399586
0.0015879397 	0.034176293 	0.040236624 	1.9010504
0.0016080402 	0.034176293 	0.040236624 	1.9010504
0.0016281407 	0.034176293 	0.040236624 	1.9010504
0.0016482412 	0.041901092 	0.04153711 	1.9074667
0.0016683417 	0.041901092 	0.04153711 	1.9074667
0.0016884422 	0.048189705 	0.031723098 	1.9202002
0.0017085427 	0.048189705 	0.031723098 	1.9202002
0.0017286432 	0.048189705 	0.031723098 	1.9202002
0.0017487437 	0.033514777 	-0.012088765 	1.9377319
0.0017688442 	0.033514777 	-0.012088765 	1.9377319
0.0017889447 	0.033514777 	-0.012088765 	1.9377319
0.0018090452 	0.015514351 	-0.042231938 	1.9793386
0.0018291457 	0.015514351 	-0.042231938 	1.9793386
0.0018492462 	0.0022025889 	-0.062453753 	1.9919024
0.0018693467 	0.0022025889 	-0.062453753 	1.9919024
0.0018894472 	0.0022025889 	-0.062453753 	1.9919024
0.0019095477 	-0.0042396421 	-0.046470347 	1.9474976
0.0019296482 	-0.0042396421 	-0.046470347 	1.9474976
0.0019497487 	0.010314985 	-0.021931154 	1.9253968
0.0019698492 	0.010314985 	-0.021931154 	1.9253968
0.0019899497 	0.017348287 	-0.013802957 	1.9021122
0.0020100503 	0.017348287 	-0.013802957 	1.9021122
0.0020301508 	0.017348287 	-0.013802957 	1.9021122
0.0020502513 	0.025677511 	-0.004797687 	1.8813059
0.0020703518 	0.025677511 	-0.004797687 	1.8813059
0.0020904523 	0.027461653 	-0.0064042785 	1.8650196
0.0021105528 	0.027461653 	-0.0064042785 	1.8650196
0.0021306533 	0.027461653 	-0.0064042785 	1.8650196
0.0021507538 	0.028030988 	-0.024476911 	1.8195525
0.0021708543 	0.028030988 	-0.024476911 	1.8195525
0.0021909548 	0.03228758 	0.019349317 	1.8373568
0.0022110553 	0.03228758 	0.019349317 	1.8373568
0.0022311558 	0.034846503 	0.032540642 	1.8543881
0.0022512563 	0.034846503 	0.032540642 	1.8543881
0.0022713568 	0.042913223 	0.043237883 	1.8741786
0.0022914573 	0.042913223 	0.043237883 	1.8741786
0.0023115578 	0.042913223 	0.043237883 	1.8741786
0.0023316583 	0.052909865 	0.077485297 	1.8773781
0.0023517588 	0.052909865 	0.077485297 	1.8773781
0.0023718593 	0.072460872 	0.07126152 	1.8892788
0.0023919598 	0.072460872 	0.07126152 	1.8892788
0.0024120603 	0.05603688 	0.042593969 	1.932298
0.0024321608 	0.05603688 	0.042593969 	1.932298
0.0024522613 	0.064243962 	0.041524247 	1.8992167
0.0024723618 	0.064243962 	0.041524247 	1.8992167
0.0024924623 	0.065033881 	0.055134491 	1.8625063
0.0025125628 	0.065033881 	0.055134491 	1.8625063
0.0025326633 	0.067885702 	0.064805658 	1.8755916
0.0025527638 	0.067885702 	0.064805658 	1.8755916
0.0025728643 	0.075719984 	0.069368874 	1.8942018
0.0025929648 	0.075719984 	0.069368874 	1.8942018
0.0026130653 	0.066274192 	0.068562473 	1.9133495
0.0026331658 	0.066274192 	0.068562473 	1.9133495
0.0026532663 	0.049922362 	0.093645813 	1.9490514
0.0026733668 	0.049922362 	0.093645813 	1.9490514
0.0026934673 	0.042437332 	0.10960886 	1.9290115
0.0027135678 	0.042437332 	0.10960886 	1.9290115
0.0027336683 	0.041023538 	0.13023369 	1.8796181
0.0027537688 	0.041023538 	0.13023369 	1.8796181
0.0027738693 	0.03292308 	0.13010801 	1.8489449
0.0027939698 	0.03292308 	0.13010801 	1.8489449
0.0028140704 	0.038560664 	0.083403842 	1.8359386
0.0028341709 	0.038560664 	0.083403842 	1.8359386
0.0028542714 	0.047709464 	0.033886102 	1.8930762
0.0028743719 	0.04861684 	0.024796779 	1.9411276
0.0028944724 	0.04861684 	0.024796779 	1.9411276
0.0029145729 	0.039764154 	0.069065689 	1.8997505
0.0029346734 	0.039764154 	0.069065689 	1.8997505
0.0029547739 	0.029312605 	0.080211977 	1.8198709
0.0029748744 	0.029312605 	0.080211977 	1.8198709
0.0029949749 	0.026402351 	0.02853231 	1.7625776
0.0030150754 	0.019988273 	-0.028871694 	1.7460417
0.0030351759 	0.019988273 	-0.028871694 	1.7460417
0.0030552764 	0.023691588 	-0.098383284 	1.77306
0.0030753769 	0.023691588 	-0.098383284 	1.77306
0.0030954774 	0.014853388 	-0.12347447 	1.7471443
0.0031155779 	-0.0086397065 	-0.020885348 	1.6859549
0.0031356784 	-0.0086397065 	-0.020885348 	1.6859549
0.0031557789 	-0.0322694 	0.078952295 	1.6812577
0.0031758794 	-0.0322694 	0.078952295 	1.6812577
0.0031959799 	-0.046308367 	0.087977174 	1.6662374
0.0032160804 	-0.059688972 	0.084190542 	1.6264914
0.0032361809 	-0.059688972 	0.084190542 	1.6264914
0.0032562814 	-0.063323535 	0.10478734 	1.6005607
0.0032763819 	-0.063045571 	0.10712543 	1.6067601
0.0032964824 	-0.063045571 	0.10712543 	1.6067601
0.0033165829 	-0.064789077 	0.072118814 	1.6226423
0.0033366834 	-0.070564922 	0.047136021 	1.653833
0.0033567839 	-0.070564922 	0.047136021 	1.653833
0.0033768844 	-0.067725079 	0.054851441 	1.6873974
0.0033969849 	-0.060518762 	0.045384234 	1.6871146
0.0034170854 	-0.060518762 	0.045384234 	1.6871146
0.0034371859 	-0.047858418 	0.027072656 	1.6740385
0.0034572864 	-0.040533694 	0.022113606 	1.6531765
0.0034773869 	-0.03213396 	0.011839833 	1.6506662
0.0034974874 	-0.03213396 	0.011839833 	1.6506662
0.0035175879 	-0.024538747 	-0.036441686 	1.6703222
0.0035376884 	-0.019372803 	-0.087902202 	1.6784839
0.0035577889 	-0.016145382 	-0.090716429 	1.6525464
0.0035778894 	-0.016145382 	-0.090716429 	1.6525464
0.0035979899 	-0.017277672 	-0.077222868 	1.6209849
0.0036180905 	-0.01273006 	-0.056284627 	1.6238083
0.003638191 	-0.006199761 	-0.018067779 	1.6217138
0.0036582915 	-0.006199761 	-0.018067779 	1.6217138
0.003678392 	0.0017419203 	-0.0072223074 	1.5659165
0.0036984925 	0.003173154 	-0.030670555 	1.5205576
0.003718593 	0.011501426 	-0.018160341 	1.515775
0.0037386935 	0.010657576 	0.016905899 	1.4829491
0.003758794 	0.0079910724 	0.018288142 	1.4694727
0.0037788945 	0.0079910724 	0.018288142 	1.4694727
0.003798995 	0.0041684132 	-0.018486374 	1.5384789
0.0038190955 	0.023275615 	-0.014801428 	1.6258962
0.003839196 	0.022727999 	-0.02085088 	1.7143052
0.0038592965 	0.023827285 	-0.023739763 	1.7214995
0.003879397 	0.019196182 	-0.054958102 	1.6540212
0.0038994975 	0.015779697 	-0.065422244 	1.5093436
0.003919598 	0.02888752 	-0.031057957 	1.2800637
0.0039396985 	0.0077355096 	-0.011453897 	1.194733
0.003959799 	0.0080726877 	-0.12255961 	0.8797645
0.0039798995 	0.0057071474 	0.034224257 	0.54452611
0.004 	0.0057071474 	0.034224257 	0.54452611
