0 	0.0093918292 	-0.0090349663 	2.0904788
2.0100503e-05 	0.0093918292 	-0.0090349663 	2.0904788
4.0201005e-05 	0.0093918292 	-0.0090349663 	2.0904788
6.0301508e-05 	-0.011046116 	-0.01080025 	2.116368
8.040201e-05 	-0.011046116 	-0.01080025 	2.116368
0.00010050251 	-0.011046116 	-0.01080025 	2.116368
0.00012060302 	-0.022062222 	-0.013610033 	2.1171524
0.00014070352 	-0.022062222 	-0.013610033 	2.1171524
0.00016080402 	-0.022062222 	-0.013610033 	2.1171524
0.00018090452 	-0.024805918 	-0.018118742 	2.1035475
0.00020100503 	-0.024805918 	-0.018118742 	2.1035475
0.00022110553 	-0.027350387 	-0.0049468582 	2.1007696
0.00024120603 	-0.027078411 	-0.0098540437 	2.0814835
0.00026130653 	-0.027078411 	-0.0098540437 	2.0814835
0.00028140704 	-0.012509587 	-0.018813217 	2.0726619
0.00030150754 	-0.026682316 	-0.0063206966 	2.0861342
0.00032160804 	-0.026682316 	-0.0063206966 	2.0861342
0.00034170854 	-0.02936259 	-0.0018884508 	2.1051211
0.00036180905 	-0.02936259 	-0.0018884508 	2.1051211
0.00038190955 	-0.0093762771 	-0.014723187 	2.0778915
0.00040201005 	-0.005641778 	-0.0073846896 	2.0833422
0.00042211055 	-0.005641778 	-0.0073846896 	2.0833422
0.00044221106 	-0.005641778 	-0.0073846896 	2.0833422
0.00046231156 	0.0015278164 	-0.0033969087 	2.0942043
0.00048241206 	0.0015278164 	-0.0033969087 	2.0942043
0.00050251256 	0.0082654397 	-0.010446017 	2.0843084
0.00052261307 	0.0082654397 	-0.010446017 	2.0843084
0.00054271357 	0.0082654397 	-0.010446017 	2.0843084
0.00056281407 	0.0043315232 	-0.023366673 	2.0762551
0.00058291457 	0.0043315232 	-0.023366673 	2.0762551
0.00060301508 	0.0043315232 	-0.023366673 	2.0762551
0.00062311558 	0.0055047403 	-0.016809987 	2.0588627
0.00064321608 	0.0055047403 	-0.016809987 	2.0588627
0.00066331658 	-0.0033311859 	-0.018753808 	2.0622299
0.00068341709 	-0.010414461 	-0.0045679117 	2.0664352
0.00070351759 	-0.010414461 	-0.0045679117 	2.0664352
0.00072361809 	-0.012189744 	-0.009840973 	2.1042468
0.00074371859 	-0.012189744 	-0.009840973 	2.1042468
0.0007638191 	-0.012189744 	-0.009840973 	2.1042468
0.0007839196 	-0.011421537 	-0.021303322 	2.0969534
0.0008040201 	-0.011421537 	-0.021303322 	2.0969534
0.0008241206 	-0.011421537 	-0.021303322 	2.0969534
0.00084422111 	-0.015944653 	-0.028606785 	2.0704233
0.00086432161 	-0.015944653 	-0.028606785 	2.0704233
0.00088442211 	-0.015944653 	-0.028606785 	2.0704233
0.00090452261 	-0.035087408 	-0.014647325 	2.0133477
0.00092462312 	-0.035087408 	-0.014647325 	2.0133477
0.00094472362 	-0.045818128 	-0.024085399 	1.9694199
0.00096482412 	-0.045818128 	-0.024085399 	1.9694199
0.00098492462 	-0.045818128 	-0.024085399 	1.9694199
0.0010050251 	-0.050522298 	-0.031342305 	1.9807868
0.0010251256 	-0.05017234 	-0.04288496 	1.9499164
0.0010452261 	-0.05017234 	-0.04288496 	1.9499164
0.0010653266 	-0.047850491 	-0.042326487 	1.9927765
0.0010854271 	-0.047850491 	-0.042326487 	1.9927765
0.0011055276 	-0.047850491 	-0.042326487 	1.9927765
0.0011256281 	-0.0548939 	-0.062827138 	2.0299944
0.0011457286 	-0.0548939 	-0.062827138 	2.0299944
0.0011658291 	-0.0548939 	-0.062827138 	2.0299944
0.0011859296 	-0.053196388 	-0.076664635 	2.0299691
0.0012060302 	-0.053196388 	-0.076664635 	2.0299691
0.0012261307 	-0.053196388 	-0.076664635 	2.0299691
0.0012462312 	-0.065750229 	-0.063404759 	1.9879121
0.0012663317 	-0.065750229 	-0.063404759 	1.9879121
0.0012864322 	-0.065750229 	-0.063404759 	1.9879121
0.0013065327 	-0.059375455 	-0.046062674 	1.9555766
0.0013266332 	-0.059375455 	-0.046062674 	1.9555766
0.0013467337 	-0.059375455 	-0.046062674 	1.9555766
0.0013668342 	-0.058382062 	-0.041068588 	1.9721061
0.0013869347 	-0.058382062 	-0.041068588 	1.9721061
0.0014070352 	-0.058382062 	-0.041068588 	1.9721061
0.0014271357 	-0.045829049 	-0.030461824 	1.9922785
0.0014472362 	-0.045829049 	-0.030461824 	1.9922785
0.0014673367 	-0.045829049 	-0.030461824 	1.9922785
0.0014874372 	-0.039401366 	-0.014193857 	2.0089361
0.0015075377 	-0.039401366 	-0.014193857 	2.0089361
0.0015276382 	-0.016907107 	0.0076548777 	2.0052287
0.0015477387 	-0.016907107 	0.0076548777 	2.0052287
0.0015678392 	-0.016907107 	0.0076548777 	2.0052287
0.0015879397 	-0.023915239 	0.019342063 	1.9969385
0.0016080402 	-0.023915239 	0.019342063 	1.9969385
0.0016281407 	-0.023915239 	0.019342063 	1.9969385
0.0016482412 	-0.027850958 	0.033780171 	1.9851017
0.0016683417 	-0.027850958 	0.033780171 	1.9851017
0.0016884422 	-0.036656797 	0.049208643 	2.0243851
0.0017085427 	-0.036656797 	0.049208643 	2.0243851
0.0017286432 	-0.036656797 	0.049208643 	2.0243851
0.0017487437 	-0.042495396 	0.07649402 	2.0321961
0.0017688442 	-0.042495396 	0.07649402 	2.0321961
0.0017889447 	-0.042495396 	0.07649402 	2.0321961
0.0018090452 	-0.053858151 	0.083551444 	2.0008053
0.0018291457 	-0.053858151 	0.083551444 	2.0008053
0.0018492462 	-0.055420947 	0.055610867 	2.001473
0.0018693467 	-0.055420947 	0.055610867 	2.001473
0.0018894472 	-0.055420947 	0.055610867 	2.001473
0.0019095477 	-0.062753919 	0.012010312 	1.9982258
0.0019296482 	-0.062753919 	0.012010312 	1.9982258
0.0019497487 	-0.060568175 	0.0018152818 	1.9725918
0.0019698492 	-0.060568175 	0.0018152818 	1.9725918
0.0019899497 	-0.069057319 	0.028195937 	1.9944281
0.0020100503 	-0.069057319 	0.028195937 	1.9944281
0.0020301508 	-0.069057319 	0.028195937 	1.9944281
0.0020502513 	-0.080884683 	0.029584348 	1.9390379
0.0020703518 	-0.080884683 	0.029584348 	1.9390379
0.0020904523 	-0.080410935 	-0.0004907634 	1.8836789
0.0021105528 	-0.080410935 	-0.0004907634 	1.8836789
0.0021306533 	-0.080410935 	-0.0004907634 	1.8836789
0.0021507538 	-0.068339483 	-0.0069637188 	1.8868901
0.0021708543 	-0.068339483 	-0.0069637188 	1.8868901
0.0021909548 	-0.06273109 	-0.0051899401 	1.9158653
0.0022110553 	-0.06273109 	-0.0051899401 	1.9158653
0.0022311558 	-0.080710794 	-0.015501495 	1.8877448
0.0022512563 	-0.080710794 	-0.015501495 	1.8877448
0.0022713568 	-0.095654612 	-0.0020249629 	1.8088709
0.0022914573 	-0.095654612 	-0.0020249629 	1.8088709
0.0023115578 	-0.095654612 	-0.0020249629 	1.8088709
0.0023316583 	-0.095400067 	0.010502987 	1.8189941
0.0023517588 	-0.095400067 	0.010502987 	1.8189941
0.0023718593 	-0.078976494 	-0.024928644 	1.8715945
0.0023919598 	-0.078976494 	-0.024928644 	1.8715945
0.0024120603 	-0.084495821 	-0.061411018 	1.8499453
0.0024321608 	-0.084495821 	-0.061411018 	1.8499453
0.0024522613 	-0.07443288 	-0.053384769 	1.854757
0.0024723618 	-0.07443288 	-0.053384769 	1.854757
0.0024924623 	-0.069600849 	-0.034549294 	1.845089
0.0025125628 	-0.069600849 	-0.034549294 	1.845089
0.0025326633 	-0.06850407 	-0.027230606 	1.7989559
0.0025527638 	-0.06850407 	-0.027230606 	1.7989559
0.0025728643 	-0.069549646 	-0.004636731 	1.806846
0.0025929648 	-0.069549646 	-0.004636731 	1.806846
0.0026130653 	-0.052316195 	0.0064888846 	1.7773747
0.0026331658 	-0.052316195 	0.0064888846 	1.7773747
0.0026532663 	-0.043458939 	-0.020557025 	1.7782981
0.0026733668 	-0.043458939 	-0.020557025 	1.7782981
0.0026934673 	-0.028028198 	-0.049514504 	1.7569411
0.0027135678 	-0.028028198 	-0.049514504 	1.7569411
0.0027336683 	-0.02228308 	-0.051404299 	1.7515769
0.0027537688 	-0.02228308 	-0.051404299 	1.7515769
0.0027738693 	-0.02519494 	-0.065774673 	1.774608
0.0027939698 	-0.02519494 	-0.065774673 	1.774608
0.0028140704 	-0.03663162 	-0.061383405 	1.7993756
0.0028341709 	-0.03663162 	-0.061383405 	1.7993756
0.0028542714 	-0.041179144 	-0.024327191 	1.8100732
0.0028743719 	-0.037864029 	0.029038505 	1.7763916
0.0028944724 	-0.037864029 	0.029038505 	1.7763916
0.0029145729 	-0.036994757 	0.064305838 	1.7719177
0.0029346734 	-0.036994757 	0.064305838 	1.7719177
0.0029547739 	-0.044700089 	0.051373397 	1.8162467
0.0029748744 	-0.044700089 	0.051373397 	1.8162467
0.0029949749 	-0.036092666 	0.018589248 	1.8404136
0.0030150754 	-0.024953354 	0.00095557918 	1.806711
0.0030351759 	-0.024953354 	0.00095557918 	1.806711
0.0030552764 	-0.013568889 	-0.0026491645 	1.7945814
0.0030753769 	-0.013568889 	-0.0026491645 	1.7945814
0.0030954774 	-0.0041282567 	0.007692466 	1.7713724
0.0031155779 	0.0039186396 	0.027961316 	1.7659495
0.0031356784 	0.0039186396 	0.027961316 	1.7659495
0.0031557789 	0.0097564462 	0.023631617 	1.754974
0.0031758794 	0.0097564462 	0.023631617 	1.754974
0.0031959799 	0.007665497 	0.0084111494 	1.763014
0.0032160804 	0.0061305551 	0.016116522 	1.7767138
0.0032361809 	0.0061305551 	0.016116522 	1.7767138
0.0032562814 	0.0055371592 	0.022017791 	1.7504878
0.0032763819 	0.0061104134 	0.012135562 	1.7190186
0.0032964824 	0.0061104134 	0.012135562 	1.7190186
0.0033165829 	0.0017122602 	-0.0016807514 	1.7453048
0.0033366834 	-0.0051031602 	-0.040352394 	1.783324
0.0033567839 	-0.0051031602 	-0.040352394 	1.783324
0.0033768844 	-0.016533944 	-0.045120266 	1.7756954
0.0033969849 	-0.020110341 	-0.029998364 	1.7771221
0.0034170854 	-0.020110341 	-0.029998364 	1.7771221
0.0034371859 	-0.013189283 	-0.012804517 	1.7947646
0.0034572864 	-0.001702347 	-0.0037143887 	1.7667991
0.0034773869 	0.012498213 	-0.031765901 	1.7309128
0.0034974874 	0.012498213 	-0.031765901 	1.7309128
0.0035175879 	0.023315476 	-0.019315313 	1.6919925
0.0035376884 	0.038097079 	0.032129481 	1.6278677
0.0035577889 	0.049222972 	0.057157098 	1.6367439
0.0035778894 	0.049222972 	0.057157098 	1.6367439
0.0035979899 	0.046682292 	0.085192462 	1.7051561
0.0036180905 	0.03988965 	0.096482477 	1.7501497
0.003638191 	0.032666035 	0.070717749 	1.76093
0.0036582915 	0.032666035 	0.070717749 	1.76093
0.003678392 	0.023823049 	-0.014917948 	1.7857066
0.0036984925 	0.023103596 	-0.1175716 	1.8417272
0.003718593 	0.022885038 	-0.17690825 	1.8787138
0.0037386935 	0.026803839 	-0.23221299 	1.8426562
0.003758794 	0.028913764 	-0.22222187 	1.808147
0.0037788945 	0.028913764 	-0.22222187 	1.808147
0.003798995 	0.047636989 	-0.071154373 	1.820416
0.0038190955 	0.045160159 	-0.010886149 	1.7849059
0.003839196 	0.035995949 	-0.00066559301 	1.850219
0.0038592965 	0.015499217 	0.032107846 	1.8825387
0.003879397 	0.024187767 	0.0446081 	1.8190331
0.0038994975 	0.011960125 	-0.081492706 	1.6388158
0.003919598 	0.018585906 	-0.13884846 	1.671518
0.0039396985 	0.031552508 	0.28151773 	1.4588691
0.003959799 	-0.0033902075 	0.027935964 	1.2351653
0.0039798995 	0.038424232 	0.15975587 	0.45429556
0.004 	0.038424232 	0.15975587 	0.45429556
