0 	-0.01356973 	-0.028350273 	2.0790742
2.0100503e-05 	0.035164154 	-0.0071308572 	2.0661049
4.0201005e-05 	0.035164154 	-0.0071308572 	2.0661049
6.0301508e-05 	0.041204669 	0.016919152 	2.0877482
8.040201e-05 	0.041204669 	0.016919152 	2.0877482
0.00010050251 	0.041204669 	0.016919152 	2.0877482
0.00012060302 	0.037576548 	0.029387935 	2.0719186
0.00014070352 	0.037576548 	0.029387935 	2.0719186
0.00016080402 	0.037576548 	0.029387935 	2.0719186
0.00018090452 	0.035419075 	0.051389162 	2.019295
0.00020100503 	0.035419075 	0.051389162 	2.019295
0.00022110553 	0.035419075 	0.051389162 	2.019295
0.00024120603 	0.036227458 	0.044768298 	2.0043788
0.00026130653 	0.036227458 	0.044768298 	2.0043788
0.00028140704 	0.026437364 	0.038372386 	2.0685234
0.00030150754 	0.026437364 	0.038372386 	2.0685234
0.00032160804 	0.026437364 	0.038372386 	2.0685234
0.00034170854 	0.016824655 	0.0368195 	2.0951007
0.00036180905 	0.016824655 	0.0368195 	2.0951007
0.00038190955 	0.016824655 	0.0368195 	2.0951007
0.00040201005 	0.0069950701 	0.024921649 	2.0834373
0.00042211055 	0.0069950701 	0.024921649 	2.0834373
0.00044221106 	0.0069950701 	0.024921649 	2.0834373
0.00046231156 	0.0033935603 	0.01106136 	2.081821
0.00048241206 	0.0033935603 	0.01106136 	2.081821
0.00050251256 	0.014799168 	-0.00029100223 	2.0677941
0.00052261307 	0.014799168 	-0.00029100223 	2.0677941
0.00054271357 	0.014799168 	-0.00029100223 	2.0677941
0.00056281407 	0.0085253958 	0.0020504681 	1.9997946
0.00058291457 	0.0085253958 	0.0020504681 	1.9997946
0.00060301508 	0.0085253958 	0.0020504681 	1.9997946
0.00062311558 	0.00099661961 	0.013179479 	1.9948551
0.00064321608 	0.00099661961 	0.013179479 	1.9948551
0.00066331658 	0.00099661961 	0.013179479 	1.9948551
0.00068341709 	0.015921213 	-0.0018961332 	2.0147032
0.00070351759 	0.015921213 	-0.0018961332 	2.0147032
0.00072361809 	0.018235544 	-0.0039851929 	2.0012803
0.00074371859 	0.018235544 	-0.0039851929 	2.0012803
0.0007638191 	0.018235544 	-0.0039851929 	2.0012803
0.0007839196 	0.020102785 	0.0025313917 	1.9790296
0.0008040201 	0.020102785 	0.0025313917 	1.9790296
0.0008241206 	0.020102785 	0.0025313917 	1.9790296
0.00084422111 	0.015931887 	0.00070667744 	2.0012165
0.00086432161 	0.015931887 	0.00070667744 	2.0012165
0.00088442211 	0.015931887 	0.00070667744 	2.0012165
0.00090452261 	0.01343189 	0.006236942 	2.0218417
0.00092462312 	0.01343189 	0.006236942 	2.0218417
0.00094472362 	0.013446751 	0.033256749 	2.0511196
0.00096482412 	0.013446751 	0.033256749 	2.0511196
0.00098492462 	0.013446751 	0.033256749 	2.0511196
0.0010050251 	-0.00041949612 	0.047074756 	2.0472851
0.0010251256 	-0.00041949612 	0.047074756 	2.0472851
0.0010452261 	-0.00041949612 	0.047074756 	2.0472851
0.0010653266 	-0.020377797 	0.059672332 	2.0223257
0.0010854271 	-0.020377797 	0.059672332 	2.0223257
0.0011055276 	-0.020377797 	0.059672332 	2.0223257
0.0011256281 	-0.021478597 	0.089250019 	1.9787842
0.0011457286 	-0.021478597 	0.089250019 	1.9787842
0.0011658291 	-0.021478597 	0.089250019 	1.9787842
0.0011859296 	-0.020629054 	0.090623117 	1.983338
0.0012060302 	-0.020629054 	0.090623117 	1.983338
0.0012261307 	-0.020629054 	0.090623117 	1.983338
0.0012462312 	-0.0079547461 	0.069373589 	2.0088142
0.0012663317 	-0.0079547461 	0.069373589 	2.0088142
0.0012864322 	-0.0079547461 	0.069373589 	2.0088142
0.0013065327 	-0.00065142994 	0.058570856 	2.0125221
0.0013266332 	-0.00065142994 	0.058570856 	2.0125221
0.0013467337 	-0.00065142994 	0.058570856 	2.0125221
0.0013668342 	0.0060587014 	0.043482851 	2.0012117
0.0013869347 	0.0060587014 	0.043482851 	2.0012117
0.0014070352 	0.0060587014 	0.043482851 	2.0012117
0.0014271357 	0.0011799466 	0.044007988 	1.9782267
0.0014472362 	0.0011799466 	0.044007988 	1.9782267
0.0014673367 	0.0011799466 	0.044007988 	1.9782267
0.0014874372 	0.0058856186 	0.05694511 	2.0315402
0.0015075377 	0.0058856186 	0.05694511 	2.0315402
0.0015276382 	0.00064188383 	0.059551392 	2.0952481
0.0015477387 	0.00064188383 	0.059551392 	2.0952481
0.0015678392 	0.00064188383 	0.059551392 	2.0952481
0.0015879397 	0.0089454367 	0.041183346 	2.0733165
0.0016080402 	0.0089454367 	0.041183346 	2.0733165
0.0016281407 	0.0089454367 	0.041183346 	2.0733165
0.0016482412 	0.0095286532 	0.0054499055 	2.0411149
0.0016683417 	0.0095286532 	0.0054499055 	2.0411149
0.0016884422 	0.0063063598 	-0.0076888858 	2.0249065
0.0017085427 	0.0063063598 	-0.0076888858 	2.0249065
0.0017286432 	0.0063063598 	-0.0076888858 	2.0249065
0.0017487437 	0.0023723844 	0.0014725178 	2.0384334
0.0017688442 	0.0023723844 	0.0014725178 	2.0384334
0.0017889447 	0.0023723844 	0.0014725178 	2.0384334
0.0018090452 	0.0057331804 	-0.0010586857 	2.0292163
0.0018291457 	0.0057331804 	-0.0010586857 	2.0292163
0.0018492462 	-0.0075476959 	0.0069378883 	1.9877622
0.0018693467 	-0.0075476959 	0.0069378883 	1.9877622
0.0018894472 	-0.0075476959 	0.0069378883 	1.9877622
0.0019095477 	-0.015035159 	0.029300214 	1.9298787
0.0019296482 	-0.015035159 	0.029300214 	1.9298787
0.0019497487 	-0.022021053 	0.021606261 	1.9126378
0.0019698492 	-0.022021053 	0.021606261 	1.9126378
0.0019899497 	-0.022021053 	0.021606261 	1.9126378
0.0020100503 	-0.0040965731 	0.0016336951 	1.959294
0.0020301508 	-0.0040965731 	0.0016336951 	1.959294
0.0020502513 	-0.0022388405 	-0.0056296626 	1.9803385
0.0020703518 	-0.0022388405 	-0.0056296626 	1.9803385
0.0020904523 	-0.002958156 	0.0030515363 	2.0107705
0.0021105528 	-0.002958156 	0.0030515363 	2.0107705
0.0021306533 	-0.002958156 	0.0030515363 	2.0107705
0.0021507538 	-0.011739714 	-0.00086215411 	2.0300205
0.0021708543 	-0.011739714 	-0.00086215411 	2.0300205
0.0021909548 	-0.017551833 	-0.048775077 	1.9591929
0.0022110553 	-0.017551833 	-0.048775077 	1.9591929
0.0022311558 	-0.015265129 	-0.059212831 	1.9516024
0.0022512563 	-0.015265129 	-0.059212831 	1.9516024
0.0022713568 	0.0012301441 	-0.03684776 	1.9120674
0.0022914573 	0.0012301441 	-0.03684776 	1.9120674
0.0023115578 	0.0012301441 	-0.03684776 	1.9120674
0.0023316583 	-0.0053589076 	-0.042181309 	1.9391066
0.0023517588 	-0.0053589076 	-0.042181309 	1.9391066
0.0023718593 	-0.015663781 	-0.045931261 	1.9624194
0.0023919598 	-0.015663781 	-0.045931261 	1.9624194
0.0024120603 	-0.01049071 	-0.044521299 	1.9165815
0.0024321608 	-0.01049071 	-0.044521299 	1.9165815
0.0024522613 	-0.0018638184 	-0.037015375 	1.8904581
0.0024723618 	-0.0018638184 	-0.037015375 	1.8904581
0.0024924623 	0.0099334529 	-0.068104052 	1.8634454
0.0025125628 	0.0099334529 	-0.068104052 	1.8634454
0.0025326633 	0.018358865 	-0.06242382 	1.8804088
0.0025527638 	0.018358865 	-0.06242382 	1.8804088
0.0025728643 	0.023066062 	-0.034050622 	1.929677
0.0025929648 	0.023066062 	-0.034050622 	1.929677
0.0026130653 	0.019852447 	-0.021471114 	1.9188249
0.0026331658 	0.019852447 	-0.021471114 	1.9188249
0.0026532663 	0.013957743 	0.0060948235 	1.8827406
0.0026733668 	0.013957743 	0.0060948235 	1.8827406
0.0026934673 	0.022820621 	0.045892222 	1.8147369
0.0027135678 	0.022820621 	0.045892222 	1.8147369
0.0027336683 	0.028747836 	0.063874849 	1.8295799
0.0027537688 	0.028747836 	0.063874849 	1.8295799
0.0027738693 	0.01795073 	0.054982801 	1.8501412
0.0027939698 	0.01795073 	0.054982801 	1.8501412
0.0028140704 	0.020698244 	0.040100042 	1.896134
0.0028341709 	0.020698244 	0.040100042 	1.896134
0.0028542714 	0.028606532 	0.026370981 	1.8742904
0.0028743719 	0.026341725 	0.034944751 	1.8468184
0.0028944724 	0.026341725 	0.034944751 	1.8468184
0.0029145729 	0.027734919 	0.10215309 	1.8613047
0.0029346734 	0.027734919 	0.10215309 	1.8613047
0.0029547739 	0.038242942 	0.10090118 	1.8770087
0.0029748744 	0.038242942 	0.10090118 	1.8770087
0.0029949749 	0.055800245 	0.076464382 	1.859984
0.0030150754 	0.061939014 	0.046346851 	1.8394652
0.0030351759 	0.061939014 	0.046346851 	1.8394652
0.0030552764 	0.068118432 	0.048157182 	1.8245362
0.0030753769 	0.068118432 	0.048157182 	1.8245362
0.0030954774 	0.067377465 	0.062938441 	1.8967447
0.0031155779 	0.063056451 	0.046431177 	1.9716029
0.0031356784 	0.063056451 	0.046431177 	1.9716029
0.0031557789 	0.058780306 	0.016635478 	1.9637625
0.0031758794 	0.058780306 	0.016635478 	1.9637625
0.0031959799 	0.051432224 	0.016142183 	1.8342758
0.0032160804 	0.052789423 	0.025621105 	1.7043935
0.0032361809 	0.052789423 	0.025621105 	1.7043935
0.0032562814 	0.057928401 	-0.01326807 	1.6509565
0.0032763819 	0.060557098 	-0.063761456 	1.7053232
0.0032964824 	0.060557098 	-0.063761456 	1.7053232
0.0033165829 	0.064339563 	-0.071210477 	1.7403503
0.0033366834 	0.053092625 	-0.042866239 	1.784215
0.0033567839 	0.053092625 	-0.042866239 	1.784215
0.0033768844 	0.04427945 	-0.012599429 	1.7861809
0.0033969849 	0.024121995 	0.033433617 	1.8003352
0.0034170854 	0.024121995 	0.033433617 	1.8003352
0.0034371859 	0.015985556 	0.091599278 	1.9473245
0.0034572864 	0.00016034337 	0.11188672 	1.9804034
0.0034773869 	-0.011307708 	0.079590133 	1.8738624
0.0034974874 	-0.011307708 	0.079590133 	1.8738624
0.0035175879 	-0.036703631 	0.023578063 	1.8021344
0.0035376884 	-0.042012058 	-0.050556315 	1.8216275
0.0035577889 	-0.040782033 	-0.097083608 	1.8410643
0.0035778894 	-0.040782033 	-0.097083608 	1.8410643
0.0035979899 	-0.04619097 	-0.065173229 	1.7902104
0.0036180905 	-0.067980158 	-0.050130441 	1.7558898
0.003638191 	-0.068277964 	-0.13840077 	1.7148495
0.0036582915 	-0.068277964 	-0.13840077 	1.7148495
0.003678392 	-0.070758457 	-0.19913087 	1.6172135
0.0036984925 	-0.049218446 	-0.18708594 	1.6068532
0.003718593 	-0.031944115 	-0.18247695 	1.5302306
0.0037386935 	-0.017619364 	-0.19348553 	1.5388761
0.003758794 	-0.019294771 	-0.20075543 	1.5405934
0.0037788945 	-0.019294771 	-0.20075543 	1.5405934
0.003798995 	-0.030639111 	-0.21155148 	1.5815052
0.0038190955 	-0.032627279 	-0.29239857 	1.6558063
0.003839196 	-0.038962501 	-0.41859685 	1.6664004
0.0038592965 	-0.019449686 	-0.38530601 	1.6733709
0.003879397 	-0.0082502234 	-0.21568887 	1.6876309
0.0038994975 	-0.017907385 	-0.16105826 	1.5625466
0.003919598 	-0.015913074 	-0.12153676 	1.3551889
0.0039396985 	0.014150779 	0.063606031 	1.047494
0.003959799 	0.021963571 	-0.078695599 	0.97550261
0.0039798995 	-0.019667043 	-0.20573823 	0.86409555
0.004 	-0.019667043 	-0.20573823 	0.86409555
