0 	-0.013248969 	0.023150059 	2.0865586
2.0100503e-05 	-0.013248969 	0.023150059 	2.0865586
4.0201005e-05 	-0.013248969 	0.023150059 	2.0865586
6.0301508e-05 	-0.025560951 	0.0045560227 	2.0698139
8.040201e-05 	-0.025560951 	0.0045560227 	2.0698139
0.00010050251 	-0.025560951 	0.0045560227 	2.0698139
0.00012060302 	-0.028686536 	0.0094369539 	2.0635684
0.00014070352 	-0.028686536 	0.0094369539 	2.0635684
0.00016080402 	-0.028686536 	0.0094369539 	2.0635684
0.00018090452 	-0.035276284 	0.013260058 	2.0859229
0.00020100503 	-0.035276284 	0.013260058 	2.0859229
0.00022110553 	-0.035276284 	0.013260058 	2.0859229
0.00024120603 	-0.039134823 	0.006620738 	2.0916513
0.00026130653 	-0.039134823 	0.006620738 	2.0916513
0.00028140704 	-0.037987763 	0.0061695925 	2.1026856
0.00030150754 	-0.037987763 	0.0061695925 	2.1026856
0.00032160804 	-0.037987763 	0.0061695925 	2.1026856
0.00034170854 	-0.036562319 	0.0063287777 	2.0997639
0.00036180905 	-0.036562319 	0.0063287777 	2.0997639
0.00038190955 	-0.036562319 	0.0063287777 	2.0997639
0.00040201005 	-0.038089257 	0.0051846107 	2.055566
0.00042211055 	-0.038089257 	0.0051846107 	2.055566
0.00044221106 	-0.038089257 	0.0051846107 	2.055566
0.00046231156 	-0.036798539 	-0.0024836336 	2.023022
0.00048241206 	-0.036798539 	-0.0024836336 	2.023022
0.00050251256 	-0.036009673 	0.00061968548 	2.023026
0.00052261307 	-0.036009673 	0.00061968548 	2.023026
0.00054271357 	-0.036009673 	0.00061968548 	2.023026
0.00056281407 	-0.039466366 	0.0048075488 	2.0282436
0.00058291457 	-0.039466366 	0.0048075488 	2.0282436
0.00060301508 	-0.039466366 	0.0048075488 	2.0282436
0.00062311558 	-0.042891999 	0.0048267492 	2.0195005
0.00064321608 	-0.042891999 	0.0048267492 	2.0195005
0.00066331658 	-0.042891999 	0.0048267492 	2.0195005
0.00068341709 	-0.041143935 	0.0097351027 	2.0053163
0.00070351759 	-0.041271558 	0.019832281 	2.0118033
0.00072361809 	-0.037617946 	0.028814065 	2.0098444
0.00074371859 	-0.037617946 	0.028814065 	2.0098444
0.0007638191 	-0.037617946 	0.028814065 	2.0098444
0.0007839196 	-0.038316766 	0.034840731 	2.0095951
0.0008040201 	-0.038316766 	0.034840731 	2.0095951
0.0008241206 	-0.038316766 	0.034840731 	2.0095951
0.00084422111 	-0.038174212 	0.043091683 	1.9975415
0.00086432161 	-0.038174212 	0.043091683 	1.9975415
0.00088442211 	-0.038174212 	0.043091683 	1.9975415
0.00090452261 	-0.044269306 	0.049467443 	1.9758916
0.00092462312 	-0.044269306 	0.049467443 	1.9758916
0.00094472362 	-0.050786435 	0.069885911 	1.9576129
0.00096482412 	-0.050786435 	0.069885911 	1.9576129
0.00098492462 	-0.050786435 	0.069885911 	1.9576129
0.0010050251 	-0.074257531 	0.057124934 	1.9605433
0.0010251256 	-0.074257531 	0.057124934 	1.9605433
0.0010452261 	-0.074257531 	0.057124934 	1.9605433
0.0010653266 	-0.081966507 	0.02966003 	1.9849046
0.0010854271 	-0.081966507 	0.02966003 	1.9849046
0.0011055276 	-0.081966507 	0.02966003 	1.9849046
0.0011256281 	-0.093218864 	-0.0088607382 	2.0072162
0.0011457286 	-0.093218864 	-0.0088607382 	2.0072162
0.0011658291 	-0.093218864 	-0.0088607382 	2.0072162
0.0011859296 	-0.11953783 	-0.018160359 	1.9701781
0.0012060302 	-0.11953783 	-0.018160359 	1.9701781
0.0012261307 	-0.10617218 	0.020682095 	1.9924856
0.0012462312 	-0.12083929 	0.014308448 	1.974588
0.0012663317 	-0.12083929 	0.014308448 	1.974588
0.0012864322 	-0.12731059 	-0.016730099 	1.9468167
0.0013065327 	-0.13591008 	0.0067509276 	1.9264372
0.0013266332 	-0.13591008 	0.0067509276 	1.9264372
0.0013467337 	-0.13591008 	0.0067509276 	1.9264372
0.0013668342 	-0.11683892 	0.050137031 	1.927731
0.0013869347 	-0.11683892 	0.050137031 	1.927731
0.0014070352 	-0.11683892 	0.050137031 	1.927731
0.0014271357 	-0.08413129 	0.095977701 	1.9556431
0.0014472362 	-0.08413129 	0.095977701 	1.9556431
0.0014673367 	-0.08413129 	0.095977701 	1.9556431
0.0014874372 	-0.061208271 	0.10036148 	1.9446112
0.0015075377 	-0.061208271 	0.10036148 	1.9446112
0.0015276382 	-0.058105946 	0.0986306 	1.9122383
0.0015477387 	-0.058105946 	0.0986306 	1.9122383
0.0015678392 	-0.058105946 	0.0986306 	1.9122383
0.0015879397 	-0.0564699 	0.061335995 	1.8928933
0.0016080402 	-0.0564699 	0.061335995 	1.8928933
0.0016281407 	-0.0564699 	0.061335995 	1.8928933
0.0016482412 	-0.050862207 	0.03865377 	1.8585634
0.0016683417 	-0.050862207 	0.03865377 	1.8585634
0.0016884422 	-0.059031658 	0.011762221 	1.8947092
0.0017085427 	-0.059031658 	0.011762221 	1.8947092
0.0017286432 	-0.059031658 	0.011762221 	1.8947092
0.0017487437 	-0.05898425 	-0.0010834246 	1.951637
0.0017688442 	-0.05898425 	-0.0010834246 	1.951637
0.0017889447 	-0.05898425 	-0.0010834246 	1.951637
0.0018090452 	-0.034753232 	-0.023197067 	1.9378976
0.0018291457 	-0.034753232 	-0.023197067 	1.9378976
0.0018492462 	-0.022130546 	-0.014756653 	1.8766006
0.0018693467 	-0.022130546 	-0.014756653 	1.8766006
0.0018894472 	-0.022130546 	-0.014756653 	1.8766006
0.0019095477 	-0.022888314 	-0.017761508 	1.9155378
0.0019296482 	-0.022888314 	-0.017761508 	1.9155378
0.0019497487 	-0.054255129 	-0.003274151 	1.94924
0.0019698492 	-0.054255129 	-0.003274151 	1.94924
0.0019899497 	-0.066508505 	-0.0066399384 	1.8758361
0.0020100503 	-0.066508505 	-0.0066399384 	1.8758361
0.0020301508 	-0.066508505 	-0.0066399384 	1.8758361
0.0020502513 	-0.081224321 	-0.018324412 	1.8229878
0.0020703518 	-0.037484579 	-0.013295504 	1.8805875
0.0020904523 	-0.08732234 	-0.034749977 	1.884947
0.0021105528 	-0.08732234 	-0.034749977 	1.884947
0.0021306533 	-0.08732234 	-0.034749977 	1.884947
0.0021507538 	-0.08947746 	-0.031929549 	1.8888871
0.0021708543 	-0.08947746 	-0.031929549 	1.8888871
0.0021909548 	-0.08305182 	-0.018633252 	1.8869417
0.0022110553 	-0.08305182 	-0.018633252 	1.8869417
0.0022311558 	-0.062148135 	-0.022376731 	1.8889775
0.0022512563 	-0.062148135 	-0.022376731 	1.8889775
0.0022713568 	-0.041449657 	-0.029684101 	1.9116774
0.0022914573 	-0.041449657 	-0.029684101 	1.9116774
0.0023115578 	-0.041449657 	-0.029684101 	1.9116774
0.0023316583 	-0.020669113 	-0.036881644 	1.9315728
0.0023517588 	-0.020669113 	-0.036881644 	1.9315728
0.0023718593 	-0.0028365216 	-0.045332506 	1.9366308
0.0023919598 	-0.0028365216 	-0.045332506 	1.9366308
0.0024120603 	-0.0098438283 	-0.041612037 	1.9544273
0.0024321608 	-0.0098438283 	-0.041612037 	1.9544273
0.0024522613 	-0.014637948 	-0.053244983 	1.9559438
0.0024723618 	-0.014637948 	-0.053244983 	1.9559438
0.0024924623 	-0.023436953 	-0.072885098 	1.9186305
0.0025125628 	-0.023436953 	-0.072885098 	1.9186305
0.0025326633 	-0.021269522 	-0.081210469 	1.8740408
0.0025527638 	-0.021269522 	-0.081210469 	1.8740408
0.0025728643 	-0.021764746 	-0.079842353 	1.8697813
0.0025929648 	-0.021764746 	-0.079842353 	1.8697813
0.0026130653 	-0.012508096 	-0.11674507 	1.8920837
0.0026331658 	-0.012508096 	-0.11674507 	1.8920837
0.0026532663 	-0.015132448 	-0.12429653 	1.8789541
0.0026733668 	-0.015132448 	-0.12429653 	1.8789541
0.0026934673 	-0.013029157 	-0.078666828 	1.8790533
0.0027135678 	-0.013029157 	-0.078666828 	1.8790533
0.0027336683 	-0.014972399 	-0.08950464 	1.8798136
0.0027537688 	-0.014972399 	-0.08950464 	1.8798136
0.0027738693 	-0.02073449 	-0.081472796 	1.9123398
0.0027939698 	-0.02073449 	-0.081472796 	1.9123398
0.0028140704 	-0.0093213 	0.00027358662 	2.1016777
0.0028341709 	-0.0093213 	0.00027358662 	2.1016777
0.0028542714 	0.0099780854 	0.021981454 	2.0998431
0.0028743719 	0.061172461 	-0.020036857 	1.9387214
0.0028944724 	0.061172461 	-0.020036857 	1.9387214
0.0029145729 	0.093476281 	-0.04051768 	1.8739798
0.0029346734 	0.093476281 	-0.04051768 	1.8739798
0.0029547739 	0.12071989 	-0.042882719 	1.8984806
0.0029748744 	0.12071989 	-0.042882719 	1.8984806
0.0029949749 	0.11294085 	-0.078148119 	1.8606248
0.0030150754 	0.078517167 	-0.075182485 	1.8475821
0.0030351759 	0.078517167 	-0.075182485 	1.8475821
0.0030552764 	0.039329912 	-0.13281995 	1.9057442
0.0030753769 	0.039329912 	-0.13281995 	1.9057442
0.0030954774 	0.02899341 	-0.13927231 	1.8745047
0.0031155779 	0.039723461 	-0.057408742 	1.8065834
0.0031356784 	0.039723461 	-0.057408742 	1.8065834
0.0031557789 	0.050387334 	0.0033571308 	1.8280191
0.0031758794 	0.050387334 	0.0033571308 	1.8280191
0.0031959799 	0.0099688653 	0.04097681 	1.8842575
0.0032160804 	0.0026336497 	0.05641878 	1.8304965
0.0032361809 	0.0026336497 	0.05641878 	1.8304965
0.0032562814 	-0.0029390817 	0.053777469 	1.7989092
0.0032763819 	-0.016879869 	0.047723189 	1.7386023
0.0032964824 	-0.016879869 	0.047723189 	1.7386023
0.0033165829 	-0.022058034 	0.072817162 	1.6705452
0.0033366834 	-0.04113952 	0.038596919 	1.6871229
0.0033567839 	-0.04113952 	0.038596919 	1.6871229
0.0033768844 	-0.047056509 	0.0026395355 	1.7461961
0.0033969849 	-0.05594029 	-0.0029144889 	1.717981
0.0034170854 	-0.05594029 	-0.0029144889 	1.717981
0.0034371859 	-0.053600032 	-0.024575851 	1.6756507
0.0034572864 	-0.051261881 	-0.047486901 	1.6819422
0.0034773869 	-0.061783633 	-0.058280855 	1.6407143
0.0034974874 	-0.061783633 	-0.058280855 	1.6407143
0.0035175879 	-0.068457148 	-0.065261051 	1.6568347
0.0035376884 	-0.077367976 	-0.05791765 	1.6727755
0.0035577889 	-0.07988953 	-0.016634808 	1.6339317
0.0035778894 	-0.07988953 	-0.016634808 	1.6339317
0.0035979899 	-0.077698486 	0.0064623812 	1.6175081
0.0036180905 	-0.072435412 	0.034774166 	1.5970401
0.003638191 	-0.062930218 	0.068713616 	1.604822
0.0036582915 	-0.062930218 	0.068713616 	1.604822
0.003678392 	-0.054869412 	0.11821569 	1.6058318
0.0036984925 	-0.039717403 	0.13688076 	1.6233686
0.003718593 	-0.028362221 	0.13767981 	1.6394189
0.0037386935 	-0.012038077 	0.16103874 	1.6343894
0.003758794 	-0.0097693585 	0.20493755 	1.6241034
0.0037788945 	-0.0097693585 	0.20493755 	1.6241034
0.003798995 	-0.018676176 	0.22425102 	1.6094898
0.0038190955 	-0.024302508 	0.14008923 	1.592166
0.003839196 	-0.028045835 	0.014794952 	1.5563792
0.0038592965 	-0.024169388 	-0.091271582 	1.5579008
0.003879397 	-0.035239017 	-0.18492968 	1.5547507
0.0038994975 	-0.0084357798 	-0.20427033 	1.4699538
0.003919598 	-0.021503915 	-0.18410901 	1.3544428
0.0039396985 	0.007254766 	0.043102249 	1.0739692
0.003959799 	-0.014550181 	-0.10914941 	0.89766075
0.0039798995 	0.020761619 	0.20708551 	0.44146638
0.004 	0.020761619 	0.20708551 	0.44146638
