0 	0.024407469 	-0.013030711 	2.0651321
2.0100503e-05 	0.024407469 	-0.013030711 	2.0651321
4.0201005e-05 	0.024407469 	-0.013030711 	2.0651321
6.0301508e-05 	0.018082785 	-0.023207531 	2.0784195
8.040201e-05 	0.018082785 	-0.023207531 	2.0784195
0.00010050251 	0.018082785 	-0.023207531 	2.0784195
0.00012060302 	0.017493475 	-0.02807142 	2.0897592
0.00014070352 	0.017493475 	-0.02807142 	2.0897592
0.00016080402 	0.017493475 	-0.02807142 	2.0897592
0.00018090452 	0.01243661 	-0.0286251 	2.0865301
0.00020100503 	0.01243661 	-0.0286251 	2.0865301
0.00022110553 	0.01243661 	-0.0286251 	2.0865301
0.00024120603 	0.0021906494 	-0.026128219 	2.0720643
0.00026130653 	0.0021906494 	-0.026128219 	2.0720643
0.00028140704 	-0.0032888556 	-0.02546558 	2.091851
0.00030150754 	-0.0032888556 	-0.02546558 	2.091851
0.00032160804 	-0.0032888556 	-0.02546558 	2.091851
0.00034170854 	-0.0091112331 	-0.023606063 	2.1262019
0.00036180905 	-0.0091112331 	-0.023606063 	2.1262019
0.00038190955 	-0.0091112331 	-0.023606063 	2.1262019
0.00040201005 	-0.0010771797 	-0.013191488 	2.1009287
0.00042211055 	-0.0010771797 	-0.013191488 	2.1009287
0.00044221106 	-0.0010771797 	-0.013191488 	2.1009287
0.00046231156 	-0.00059575585 	-0.0080779575 	2.0865929
0.00048241206 	-0.00059575585 	-0.0080779575 	2.0865929
0.00050251256 	0.0020820211 	-0.012258508 	2.0684583
0.00052261307 	0.0020820211 	-0.012258508 	2.0684583
0.00054271357 	0.0020820211 	-0.012258508 	2.0684583
0.00056281407 	0.0016455348 	-0.018638608 	2.0521464
0.00058291457 	0.0016455348 	-0.018638608 	2.0521464
0.00060301508 	0.0070679766 	-0.01270941 	2.0912328
0.00062311558 	0.0031181871 	-0.02395544 	2.1212724
0.00064321608 	0.0031181871 	-0.02395544 	2.1212724
0.00066331658 	0.0031181871 	-0.02395544 	2.1212724
0.00068341709 	0.0073207274 	-0.052234007 	2.0883926
0.00070351759 	0.0073207274 	-0.052234007 	2.0883926
0.00072361809 	0.017236175 	-0.063975908 	2.0785073
0.00074371859 	0.017236175 	-0.063975908 	2.0785073
0.0007638191 	0.017236175 	-0.063975908 	2.0785073
0.0007839196 	0.026824623 	-0.070832189 	2.0578616
0.0008040201 	0.026824623 	-0.070832189 	2.0578616
0.0008241206 	0.026824623 	-0.070832189 	2.0578616
0.00084422111 	0.033442041 	-0.063472546 	2.0705321
0.00086432161 	0.033442041 	-0.063472546 	2.0705321
0.00088442211 	0.033442041 	-0.063472546 	2.0705321
0.00090452261 	0.022546631 	-0.066358966 	2.078658
0.00092462312 	0.022546631 	-0.066358966 	2.078658
0.00094472362 	0.012556527 	-0.073606105 	2.0532434
0.00096482412 	0.012556527 	-0.073606105 	2.0532434
0.00098492462 	0.012556527 	-0.073606105 	2.0532434
0.0010050251 	0.0064265196 	-0.060202713 	2.0254232
0.0010251256 	0.0064265196 	-0.060202713 	2.0254232
0.0010452261 	0.0064265196 	-0.060202713 	2.0254232
0.0010653266 	0.010558089 	-0.026104699 	2.001229
0.0010854271 	0.010558089 	-0.026104699 	2.001229
0.0011055276 	0.010558089 	-0.026104699 	2.001229
0.0011256281 	0.015955865 	0.00068155851 	2.0165232
0.0011457286 	0.015955865 	0.00068155851 	2.0165232
0.0011658291 	0.015955865 	0.00068155851 	2.0165232
0.0011859296 	0.0087239399 	0.0037348847 	2.0400796
0.0012060302 	0.0087239399 	0.0037348847 	2.0400796
0.0012261307 	0.0087239399 	0.0037348847 	2.0400796
0.0012462312 	-0.00074434512 	-0.00063876841 	2.0344414
0.0012663317 	-0.00074434512 	-0.00063876841 	2.0344414
0.0012864322 	-0.00074434512 	-0.00063876841 	2.0344414
0.0013065327 	0.00049948445 	-0.00012874527 	2.0439394
0.0013266332 	0.00049948445 	-0.00012874527 	2.0439394
0.0013467337 	0.00049948445 	-0.00012874527 	2.0439394
0.0013668342 	-0.00040122856 	-0.0035269699 	2.0761869
0.0013869347 	-0.00040122856 	-0.0035269699 	2.0761869
0.0014070352 	-0.00040122856 	-0.0035269699 	2.0761869
0.0014271357 	-0.0027411511 	0.015331079 	2.0703194
0.0014472362 	-0.0027411511 	0.015331079 	2.0703194
0.0014673367 	-0.0027411511 	0.015331079 	2.0703194
0.0014874372 	0.0027487748 	0.036557837 	2.0567262
0.0015075377 	0.0027487748 	0.036557837 	2.0567262
0.0015276382 	-0.023236002 	0.044412676 	2.0827852
0.0015477387 	-0.023236002 	0.044412676 	2.0827852
0.0015678392 	-0.023236002 	0.044412676 	2.0827852
0.0015879397 	-0.028448313 	0.042786924 	2.067785
0.0016080402 	-0.028448313 	0.042786924 	2.067785
0.0016281407 	-0.028448313 	0.042786924 	2.067785
0.0016482412 	-0.031045259 	0.05754994 	2.0412509
0.0016683417 	-0.031045259 	0.05754994 	2.0412509
0.0016884422 	-0.03785915 	0.053359387 	2.0668795
0.0017085427 	-0.03785915 	0.053359387 	2.0668795
0.0017286432 	-0.03785915 	0.053359387 	2.0668795
0.0017487437 	-0.041081564 	0.043817255 	2.0261083
0.0017688442 	-0.041081564 	0.043817255 	2.0261083
0.0017889447 	-0.041081564 	0.043817255 	2.0261083
0.0018090452 	-0.04923981 	0.019546807 	1.9530515
0.0018291457 	-0.04923981 	0.019546807 	1.9530515
0.0018492462 	-0.064726526 	-0.0026978801 	1.9372193
0.0018693467 	-0.064726526 	-0.0026978801 	1.9372193
0.0018894472 	-0.064726526 	-0.0026978801 	1.9372193
0.0019095477 	-0.066973978 	0.0015551651 	1.9365746
0.0019296482 	-0.066973978 	0.0015551651 	1.9365746
0.0019497487 	-0.067703955 	0.00025482148 	1.9431669
0.0019698492 	-0.067703955 	0.00025482148 	1.9431669
0.0019899497 	-0.061697557 	0.0075816711 	1.9003515
0.0020100503 	-0.061697557 	0.0075816711 	1.9003515
0.0020301508 	-0.061697557 	0.0075816711 	1.9003515
0.0020502513 	-0.06122847 	0.012765201 	1.861638
0.0020703518 	-0.06122847 	0.012765201 	1.861638
0.0020904523 	-0.0542573 	0.013001963 	1.8563441
0.0021105528 	-0.0542573 	0.013001963 	1.8563441
0.0021306533 	-0.0542573 	0.013001963 	1.8563441
0.0021507538 	-0.055938881 	0.021831854 	1.8388245
0.0021708543 	-0.055938881 	0.021831854 	1.8388245
0.0021909548 	-0.060645626 	0.016300606 	1.8387904
0.0022110553 	-0.060645626 	0.016300606 	1.8387904
0.0022311558 	-0.046336169 	-0.0031163871 	1.8958781
0.0022512563 	-0.046336169 	-0.0031163871 	1.8958781
0.0022713568 	-0.033645119 	-0.043283437 	1.8885892
0.0022914573 	-0.033645119 	-0.043283437 	1.8885892
0.0023115578 	-0.033645119 	-0.043283437 	1.8885892
0.0023316583 	-0.01880153 	-0.068156436 	1.8518641
0.0023517588 	-0.01880153 	-0.068156436 	1.8518641
0.0023718593 	-0.022949342 	-0.059824763 	1.8910342
0.0023919598 	-0.022949342 	-0.059824763 	1.8910342
0.0024120603 	-0.015811936 	-0.037325789 	1.9234563
0.0024321608 	-0.015811936 	-0.037325789 	1.9234563
0.0024522613 	-0.027090572 	-0.023352997 	1.9186692
0.0024723618 	-0.027090572 	-0.023352997 	1.9186692
0.0024924623 	-0.040179849 	0.00021188803 	1.7750637
0.0025125628 	-0.040179849 	0.00021188803 	1.7750637
0.0025326633 	-0.040792153 	-0.014186342 	1.7922207
0.0025527638 	-0.040792153 	-0.014186342 	1.7922207
0.0025728643 	-0.070109143 	-0.0070484216 	1.7721712
0.0025929648 	-0.070109143 	-0.0070484216 	1.7721712
0.0026130653 	-0.06857471 	-0.014280244 	1.753248
0.0026331658 	-0.06857471 	-0.014280244 	1.753248
0.0026532663 	-0.062075361 	-0.033199066 	1.7260256
0.0026733668 	-0.062075361 	-0.033199066 	1.7260256
0.0026934673 	-0.075966676 	-0.039644608 	1.7364367
0.0027135678 	-0.075966676 	-0.039644608 	1.7364367
0.0027336683 	-0.068895817 	-0.029541111 	1.7829684
0.0027537688 	-0.068895817 	-0.029541111 	1.7829684
0.0027738693 	-0.077088614 	0.047268387 	1.8294978
0.0027939698 	-0.077088614 	0.047268387 	1.8294978
0.0028140704 	-0.074945347 	0.071558902 	1.8501773
0.0028341709 	-0.074945347 	0.071558902 	1.8501773
0.0028542714 	-0.077786432 	0.052957228 	1.8181628
0.0028743719 	-0.069739433 	0.038905381 	1.7969171
0.0028944724 	-0.069739433 	0.038905381 	1.7969171
0.0029145729 	-0.077887167 	0.0028179455 	1.7899945
0.0029346734 	-0.077887167 	0.0028179455 	1.7899945
0.0029547739 	-0.060265216 	-0.0089545753 	1.7695334
0.0029748744 	-0.060265216 	-0.0089545753 	1.7695334
0.0029949749 	-0.052061125 	0.0065790096 	1.7739197
0.0030150754 	-0.030808524 	0.015787943 	1.7780525
0.0030351759 	-0.030808524 	0.015787943 	1.7780525
0.0030552764 	-0.020706614 	0.028620716 	1.8202683
0.0030753769 	-0.020706614 	0.028620716 	1.8202683
0.0030954774 	-0.02072107 	0.054847394 	1.8505082
0.0031155779 	-0.024216446 	0.086955035 	1.8660268
0.0031356784 	-0.024216446 	0.086955035 	1.8660268
0.0031557789 	-0.030983217 	0.073712795 	1.8521101
0.0031758794 	-0.030983217 	0.073712795 	1.8521101
0.0031959799 	-0.026246318 	0.077885077 	1.8613663
0.0032160804 	-0.020664123 	0.081621136 	1.8529069
0.0032361809 	-0.020664123 	0.081621136 	1.8529069
0.0032562814 	-0.0067678646 	0.052591653 	1.8717783
0.0032763819 	0.0044251441 	0.067705965 	1.888123
0.0032964824 	0.0044251441 	0.067705965 	1.888123
0.0033165829 	0.012582225 	0.097281107 	1.8556528
0.0033366834 	0.014047329 	0.091268334 	1.8029269
0.0033567839 	0.014047329 	0.091268334 	1.8029269
0.0033768844 	0.0094747175 	0.067110513 	1.7659558
0.0033969849 	0.011754211 	0.06677332 	1.7482333
0.0034170854 	0.011754211 	0.06677332 	1.7482333
0.0034371859 	0.023131983 	0.062855722 	1.7583502
0.0034572864 	0.032462654 	0.025549178 	1.7810469
0.0034773869 	0.039943179 	-0.038631084 	1.7922606
0.0034974874 	0.039943179 	-0.038631084 	1.7922606
0.0035175879 	0.040288963 	-0.064379043 	1.8163869
0.0035376884 	0.04149694 	-0.081675229 	1.8727372
0.0035577889 	0.039305781 	-0.10899732 	1.9008798
0.0035778894 	0.039305781 	-0.10899732 	1.9008798
0.0035979899 	0.034797089 	-0.087527201 	1.9164504
0.0036180905 	0.028631051 	-0.026880592 	1.9457657
0.003638191 	0.033677905 	0.0044213045 	1.9538684
0.0036582915 	0.033677905 	0.0044213045 	1.9538684
0.003678392 	0.036744956 	-0.034082252 	1.9247324
0.0036984925 	0.029173096 	-0.11821612 	1.8509523
0.003718593 	0.0093348136 	-0.1529469 	1.7848416
0.0037386935 	-0.0243132 	-0.1300816 	1.7595226
0.003758794 	-0.046177505 	-0.043792366 	1.7460161
0.0037788945 	-0.046177505 	-0.043792366 	1.7460161
0.003798995 	-0.066765805 	-0.052704619 	1.7583566
0.0038190955 	-0.072549599 	-0.067546055 	1.78874
0.003839196 	-0.066944894 	-0.011707329 	1.776052
0.0038592965 	-0.076314556 	0.066855633 	1.7202202
0.003879397 	-0.084289695 	0.13637133 	1.5421268
0.0038994975 	-0.08041388 	0.068735811 	1.436752
0.003919598 	-0.046593667 	0.013324888 	1.5339757
0.0039396985 	-0.076444757 	0.05536805 	1.4808202
0.003959799 	-0.012017381 	0.073149801 	0.76839734
0.0039798995 	-0.011825293 	-0.14611229 	0.4271128
0.004 	-0.011825293 	-0.14611229 	0.4271128
