0 	-0.021774452 	-0.022132867 	2.0969928
2.0100503e-05 	-0.024794914 	0.020621115 	2.0747275
4.0201005e-05 	-0.024794914 	0.020621115 	2.0747275
6.0301508e-05 	-0.011667929 	0.026066523 	2.0568279
8.040201e-05 	-0.011667929 	0.026066523 	2.0568279
0.00010050251 	-0.011667929 	0.026066523 	2.0568279
0.00012060302 	-0.0042564456 	0.025528283 	2.0412051
0.00014070352 	-0.0042564456 	0.025528283 	2.0412051
0.00016080402 	-0.0042564456 	0.025528283 	2.0412051
0.00018090452 	-0.0049230839 	0.029518854 	2.0410996
0.00020100503 	-0.0049230839 	0.029518854 	2.0410996
0.00022110553 	-0.0049230839 	0.029518854 	2.0410996
0.00024120603 	-0.0060750602 	0.041674226 	2.0335333
0.00026130653 	-0.0060750602 	0.041674226 	2.0335333
0.00028140704 	-0.0053198637 	0.053539203 	2.0261414
0.00030150754 	-0.0053198637 	0.053539203 	2.0261414
0.00032160804 	-0.0053198637 	0.053539203 	2.0261414
0.00034170854 	-0.0073843827 	0.059565466 	2.036161
0.00036180905 	-0.0073843827 	0.059565466 	2.036161
0.00038190955 	-0.0073843827 	0.059565466 	2.036161
0.00040201005 	-0.0069578765 	0.049878491 	2.0544617
0.00042211055 	-0.0069578765 	0.049878491 	2.0544617
0.00044221106 	-0.0069578765 	0.049878491 	2.0544617
0.00046231156 	-0.0042575818 	0.042899234 	2.0718579
0.00048241206 	-0.0042575818 	0.042899234 	2.0718579
0.00050251256 	0.0038947938 	0.03931103 	2.060348
0.00052261307 	0.0038947938 	0.03931103 	2.060348
0.00054271357 	0.0038947938 	0.03931103 	2.060348
0.00056281407 	0.009184691 	0.026137494 	2.0437551
0.00058291457 	0.009184691 	0.026137494 	2.0437551
0.00060301508 	0.009184691 	0.026137494 	2.0437551
0.00062311558 	0.0088653586 	0.0073450363 	2.0382073
0.00064321608 	0.0088653586 	0.0073450363 	2.0382073
0.00066331658 	0.0088653586 	0.0073450363 	2.0382073
0.00068341709 	-0.0030422934 	-0.0069149935 	2.0625916
0.00070351759 	-0.0030422934 	-0.0069149935 	2.0625916
0.00072361809 	-0.00081212318 	-0.013798596 	2.0981842
0.00074371859 	-0.00081212318 	-0.013798596 	2.0981842
0.0007638191 	-0.00081212318 	-0.013798596 	2.0981842
0.0007839196 	-0.003120478 	-0.0048469502 	2.0918165
0.0008040201 	-0.003120478 	-0.0048469502 	2.0918165
0.0008241206 	-0.003120478 	-0.0048469502 	2.0918165
0.00084422111 	-0.0048757159 	0.0097715095 	2.0741018
0.00086432161 	-0.0048757159 	0.0097715095 	2.0741018
0.00088442211 	-0.0048757159 	0.0097715095 	2.0741018
0.00090452261 	-0.010834832 	0.011855074 	2.065185
0.00092462312 	-0.010834832 	0.011855074 	2.065185
0.00094472362 	-0.011232601 	0.022262897 	2.0474203
0.00096482412 	-0.011232601 	0.022262897 	2.0474203
0.00098492462 	-0.011232601 	0.022262897 	2.0474203
0.0010050251 	-0.014177279 	0.027916963 	2.0286537
0.0010251256 	-0.014177279 	0.027916963 	2.0286537
0.0010452261 	0.0069698582 	0.024173952 	2.0629212
0.0010653266 	0.0044110857 	0.018604265 	2.0313646
0.0010854271 	0.0044110857 	0.018604265 	2.0313646
0.0011055276 	0.0044110857 	0.018604265 	2.0313646
0.0011256281 	-0.021850387 	-0.0029401482 	2.0056245
0.0011457286 	-0.021850387 	-0.0029401482 	2.0056245
0.0011658291 	-0.0052472022 	0.011094714 	2.0196682
0.0011859296 	-0.025848699 	-0.0007302427 	2.0320282
0.0012060302 	-0.025848699 	-0.0007302427 	2.0320282
0.0012261307 	-0.037696691 	-0.0028397173 	2.0055647
0.0012462312 	-0.036905511 	0.00038117895 	1.9825803
0.0012663317 	-0.036905511 	0.00038117895 	1.9825803
0.0012864322 	-0.036905511 	0.00038117895 	1.9825803
0.0013065327 	-0.015774403 	-0.0011870637 	1.9792653
0.0013266332 	-0.015774403 	-0.0011870637 	1.9792653
0.0013467337 	-0.015774403 	-0.0011870637 	1.9792653
0.0013668342 	-0.016232359 	0.0073044702 	2.0146287
0.0013869347 	-0.016232359 	0.0073044702 	2.0146287
0.0014070352 	-0.0065128688 	-0.052453568 	2.0498231
0.0014271357 	0.0043161072 	-0.053346351 	2.0267591
0.0014472362 	-0.0058213982 	0.0096061073 	1.994529
0.0014673367 	-0.0058213982 	0.0096061073 	1.994529
0.0014874372 	0.0078572181 	0.015759688 	1.9552135
0.0015075377 	0.0078572181 	0.015759688 	1.9552135
0.0015276382 	0.0083727694 	0.025339695 	1.9398723
0.0015477387 	0.0083727694 	0.025339695 	1.9398723
0.0015678392 	0.01250283 	0.017332366 	2.0324417
0.0015879397 	0.014342648 	0.017789387 	2.0083106
0.0016080402 	0.0068688174 	0.0092499963 	1.9593275
0.0016281407 	0.0068688174 	0.0092499963 	1.9593275
0.0016482412 	0.01132036 	-0.012444598 	1.9081603
0.0016683417 	0.01132036 	-0.012444598 	1.9081603
0.0016884422 	0.004153699 	0.0060991493 	1.878161
0.0017085427 	0.004153699 	0.0060991493 	1.878161
0.0017286432 	0.004153699 	0.0060991493 	1.878161
0.0017487437 	0.0038870117 	-0.0048044983 	1.8741027
0.0017688442 	0.0038870117 	-0.0048044983 	1.8741027
0.0017889447 	0.0038870117 	-0.0048044983 	1.8741027
0.0018090452 	0.019865204 	-0.023322943 	1.9079368
0.0018291457 	0.019865204 	-0.023322943 	1.9079368
0.0018492462 	0.0076048779 	-0.027931118 	1.9155983
0.0018693467 	0.0076048779 	-0.027931118 	1.9155983
0.0018894472 	0.0076048779 	-0.027931118 	1.9155983
0.0019095477 	0.0071880342 	-0.026147367 	1.9207405
0.0019296482 	0.0071880342 	-0.026147367 	1.9207405
0.0019497487 	0.013487519 	-0.019748912 	1.9223056
0.0019698492 	0.013487519 	-0.019748912 	1.9223056
0.0019899497 	0.019572169 	-0.018792793 	1.9884968
0.0020100503 	0.019572169 	-0.018792793 	1.9884968
0.0020301508 	0.019572169 	-0.018792793 	1.9884968
0.0020502513 	0.018062371 	-0.018089402 	2.0433615
0.0020703518 	0.018062371 	-0.018089402 	2.0433615
0.0020904523 	0.0047163251 	0.0028901443 	1.9530413
0.0021105528 	0.0047163251 	0.0028901443 	1.9530413
0.0021306533 	0.0047163251 	0.0028901443 	1.9530413
0.0021507538 	0.011349966 	0.01299577 	1.8346935
0.0021708543 	0.011349966 	0.01299577 	1.8346935
0.0021909548 	0.013605338 	-0.018587215 	1.8083003
0.0022110553 	0.013605338 	-0.018587215 	1.8083003
0.0022311558 	-0.0088943486 	-0.039458149 	1.8389302
0.0022512563 	-0.0088943486 	-0.039458149 	1.8389302
0.0022713568 	-0.022298272 	-0.0600791 	1.8891292
0.0022914573 	-0.022298272 	-0.0600791 	1.8891292
0.0023115578 	-0.022298272 	-0.0600791 	1.8891292
0.0023316583 	-0.017361483 	-0.026644428 	1.8703343
0.0023517588 	-0.017361483 	-0.026644428 	1.8703343
0.0023718593 	-0.015212007 	-0.029301445 	1.8361725
0.0023919598 	-0.015212007 	-0.029301445 	1.8361725
0.0024120603 	-0.020952745 	-0.02226214 	1.8233303
0.0024321608 	-0.020952745 	-0.02226214 	1.8233303
0.0024522613 	-0.017771864 	-0.010949364 	1.8239655
0.0024723618 	-0.017771864 	-0.010949364 	1.8239655
0.0024924623 	-0.0038744478 	-0.023494561 	1.9112431
0.0025125628 	-0.0038744478 	-0.023494561 	1.9112431
0.0025326633 	0.024075256 	0.012590259 	1.8426975
0.0025527638 	0.024075256 	0.012590259 	1.8426975
0.0025728643 	0.020323617 	0.02419294 	1.8574193
0.0025929648 	0.020323617 	0.02419294 	1.8574193
0.0026130653 	0.020501627 	-0.0015988539 	1.9293251
0.0026331658 	0.020501627 	-0.0015988539 	1.9293251
0.0026532663 	0.033258795 	0.021806166 	1.9026446
0.0026733668 	0.033258795 	0.021806166 	1.9026446
0.0026934673 	0.036360594 	0.023563625 	1.8661186
0.0027135678 	0.036360594 	0.023563625 	1.8661186
0.0027336683 	0.036643841 	0.0025538256 	1.8289844
0.0027537688 	0.036643841 	0.0025538256 	1.8289844
0.0027738693 	0.04033146 	-0.031465581 	1.8043984
0.0027939698 	0.04033146 	-0.031465581 	1.8043984
0.0028140704 	0.029817689 	-0.040173514 	1.8530838
0.0028341709 	0.029817689 	-0.040173514 	1.8530838
0.0028542714 	0.014260872 	-0.0019722667 	1.9060044
0.0028743719 	0.0082094826 	0.0091934355 	1.9285801
0.0028944724 	0.0082094826 	0.0091934355 	1.9285801
0.0029145729 	-0.00093658146 	-0.012606162 	1.9184926
0.0029346734 	-0.00093658146 	-0.012606162 	1.9184926
0.0029547739 	-0.0029798164 	-0.038753072 	1.9195676
0.0029748744 	-0.0029798164 	-0.038753072 	1.9195676
0.0029949749 	-0.0075662439 	-0.064787017 	1.8794482
0.0030150754 	-0.0033638056 	-0.082101044 	1.8452909
0.0030351759 	-0.0033638056 	-0.082101044 	1.8452909
0.0030552764 	-0.0028588778 	-0.090870923 	1.8329704
0.0030753769 	-0.0028588778 	-0.090870923 	1.8329704
0.0030954774 	0.00066262999 	-0.079140002 	1.8288497
0.0031155779 	0.0022376882 	-0.071658965 	1.8372853
0.0031356784 	0.0022376882 	-0.071658965 	1.8372853
0.0031557789 	0.0034584929 	-0.068972985 	1.8502035
0.0031758794 	0.0034584929 	-0.068972985 	1.8502035
0.0031959799 	-0.0044991591 	-0.064260344 	1.8237752
0.0032160804 	0.00093877488 	-0.064316859 	1.7968368
0.0032361809 	0.00093877488 	-0.064316859 	1.7968368
0.0032562814 	0.0034470438 	-0.069918223 	1.7869138
0.0032763819 	0.014409084 	-0.064192618 	1.7866431
0.0032964824 	0.014409084 	-0.064192618 	1.7866431
0.0033165829 	0.026496782 	-0.051607813 	1.7962221
0.0033366834 	0.039205824 	-0.026336814 	1.7816774
0.0033567839 	0.039205824 	-0.026336814 	1.7816774
0.0033768844 	0.044032804 	-0.010133026 	1.7663228
0.0033969849 	0.049417479 	-0.013500603 	1.7696325
0.0034170854 	0.049417479 	-0.013500603 	1.7696325
0.0034371859 	0.059493405 	-0.018151634 	1.8350521
0.0034572864 	0.05760776 	-0.015284638 	1.890732
0.0034773869 	0.052031808 	-0.017570376 	1.8656437
0.0034974874 	0.052031808 	-0.017570376 	1.8656437
0.0035175879 	0.054616991 	0.015361498 	1.8517731
0.0035376884 	0.044872959 	0.00023673491 	1.9122088
0.0035577889 	0.021088183 	-0.024938266 	1.8475645
0.0035778894 	0.021088183 	-0.024938266 	1.8475645
0.0035979899 	0.001526918 	0.0060207648 	1.675134
0.0036180905 	-0.020557769 	0.024392962 	1.6198939
0.003638191 	-0.034200627 	0.018654868 	1.6751056
0.0036582915 	-0.034200627 	0.018654868 	1.6751056
0.003678392 	-0.039021784 	0.021705329 	1.6926165
0.0036984925 	-0.043954583 	0.063416979 	1.5912368
0.003718593 	-0.020256601 	0.1862047 	1.4518443
0.0037386935 	-0.0045999953 	0.20450279 	1.4908927
0.003758794 	0.021024988 	0.12586851 	1.6192244
0.0037788945 	0.021024988 	0.12586851 	1.6192244
0.003798995 	0.026934867 	0.17275318 	1.6966747
0.0038190955 	0.013481572 	0.19104842 	1.7127438
0.003839196 	0.00021015473 	0.069243479 	1.6648903
0.0038592965 	0.014065161 	-0.030449642 	1.5656598
0.003879397 	0.0013089616 	0.018438052 	1.4948463
0.0038994975 	0.020436751 	0.040927959 	1.4301012
0.003919598 	-0.0201665 	0.15583517 	1.5371408
0.0039396985 	0.008188651 	-0.1570688 	1.2070553
0.003959799 	0.031167441 	0.14097588 	1.4455793
0.0039798995 	0.034443449 	-0.21829465 	1.1601519
0.004 	0.034443449 	-0.21829465 	1.1601519
