0 	0.010359624 	-0.018261281 	2.060753
2.0100503e-05 	0.010359624 	-0.018261281 	2.060753
4.0201005e-05 	0.010359624 	-0.018261281 	2.060753
6.0301508e-05 	0.016878264 	-0.016566233 	2.0549838
8.040201e-05 	0.016878264 	-0.016566233 	2.0549838
0.00010050251 	0.016878264 	-0.016566233 	2.0549838
0.00012060302 	0.02320881 	-0.017263399 	2.050765
0.00014070352 	0.02320881 	-0.017263399 	2.050765
0.00016080402 	0.02320881 	-0.017263399 	2.050765
0.00018090452 	0.020434716 	-0.022437932 	2.0376045
0.00020100503 	0.020434716 	-0.022437932 	2.0376045
0.00022110553 	0.020434716 	-0.022437932 	2.0376045
0.00024120603 	0.024985779 	-0.032782276 	2.0237996
0.00026130653 	0.024985779 	-0.032782276 	2.0237996
0.00028140704 	0.02475611 	-0.029849328 	2.0172017
0.00030150754 	0.02475611 	-0.029849328 	2.0172017
0.00032160804 	0.02475611 	-0.029849328 	2.0172017
0.00034170854 	0.025413493 	-0.032013677 	2.0153104
0.00036180905 	0.025413493 	-0.032013677 	2.0153104
0.00038190955 	0.025413493 	-0.032013677 	2.0153104
0.00040201005 	0.024557455 	-0.035882373 	2.0528622
0.00042211055 	0.024557455 	-0.035882373 	2.0528622
0.00044221106 	0.024557455 	-0.035882373 	2.0528622
0.00046231156 	0.025179454 	-0.024319085 	2.0799554
0.00048241206 	0.025179454 	-0.024319085 	2.0799554
0.00050251256 	0.025476526 	-0.01648907 	2.0838782
0.00052261307 	0.025476526 	-0.01648907 	2.0838782
0.00054271357 	0.025476526 	-0.01648907 	2.0838782
0.00056281407 	0.024139888 	-0.016416779 	2.0922271
0.00058291457 	0.024139888 	-0.016416779 	2.0922271
0.00060301508 	0.024139888 	-0.016416779 	2.0922271
0.00062311558 	0.016619642 	-0.016496826 	2.1030339
0.00064321608 	0.016619642 	-0.016496826 	2.1030339
0.00066331658 	0.016619642 	-0.016496826 	2.1030339
0.00068341709 	0.01265729 	-0.016832518 	2.1044452
0.00070351759 	0.01265729 	-0.016832518 	2.1044452
0.00072361809 	0.016682978 	-0.017135577 	2.0915542
0.00074371859 	0.016682978 	-0.017135577 	2.0915542
0.0007638191 	0.016682978 	-0.017135577 	2.0915542
0.0007839196 	0.018936654 	-0.021864836 	2.0628142
0.0008040201 	0.018936654 	-0.021864836 	2.0628142
0.0008241206 	0.018936654 	-0.021864836 	2.0628142
0.00084422111 	0.020231754 	-0.012259621 	2.0587998
0.00086432161 	0.020231754 	-0.012259621 	2.0587998
0.00088442211 	0.020231754 	-0.012259621 	2.0587998
0.00090452261 	0.02180267 	-0.0018902526 	2.0643248
0.00092462312 	0.02180267 	-0.0018902526 	2.0643248
0.00094472362 	0.027177715 	0.002090612 	2.0554599
0.00096482412 	0.027177715 	0.002090612 	2.0554599
0.00098492462 	0.021576793 	0.00052105821 	2.0670906
0.0010050251 	0.011361546 	0.0021456088 	2.0478439
0.0010251256 	0.011361546 	0.0021456088 	2.0478439
0.0010452261 	0.011361546 	0.0021456088 	2.0478439
0.0010653266 	0.013679657 	0.0049095855 	2.0276473
0.0010854271 	0.013679657 	0.0049095855 	2.0276473
0.0011055276 	0.013679657 	0.0049095855 	2.0276473
0.0011256281 	0.035928066 	0.0052768218 	2.0289344
0.0011457286 	0.035928066 	0.0052768218 	2.0289344
0.0011658291 	0.035928066 	0.0052768218 	2.0289344
0.0011859296 	0.04043221 	0.017585466 	2.0691228
0.0012060302 	0.04043221 	0.017585466 	2.0691228
0.0012261307 	0.04043221 	0.017585466 	2.0691228
0.0012462312 	0.045527071 	0.016655528 	2.0845902
0.0012663317 	0.045527071 	0.016655528 	2.0845902
0.0012864322 	0.045527071 	0.016655528 	2.0845902
0.0013065327 	0.058604146 	0.015335458 	2.0592249
0.0013266332 	0.058604146 	0.015335458 	2.0592249
0.0013467337 	0.058604146 	0.015335458 	2.0592249
0.0013668342 	0.068757781 	0.0071063736 	2.0910014
0.0013869347 	0.068757781 	0.0071063736 	2.0910014
0.0014070352 	0.068757781 	0.0071063736 	2.0910014
0.0014271357 	0.061778818 	-0.014186436 	2.1050804
0.0014472362 	0.061778818 	-0.014186436 	2.1050804
0.0014673367 	0.061778818 	-0.014186436 	2.1050804
0.0014874372 	0.046221333 	0.0025455236 	2.1039737
0.0015075377 	0.046221333 	0.0025455236 	2.1039737
0.0015276382 	0.050130837 	0.016446691 	2.0745711
0.0015477387 	0.050130837 	0.016446691 	2.0745711
0.0015678392 	0.050130837 	0.016446691 	2.0745711
0.0015879397 	0.034119732 	0.0019705829 	2.0527293
0.0016080402 	0.034119732 	0.0019705829 	2.0527293
0.0016281407 	0.034119732 	0.0019705829 	2.0527293
0.0016482412 	0.052997733 	0.0024750092 	2.040407
0.0016683417 	0.052997733 	0.0024750092 	2.040407
0.0016884422 	0.039175068 	0.022439922 	1.9898637
0.0017085427 	0.039175068 	0.022439922 	1.9898637
0.0017286432 	0.039175068 	0.022439922 	1.9898637
0.0017487437 	0.042473788 	0.010995269 	1.9834553
0.0017688442 	0.042473788 	0.010995269 	1.9834553
0.0017889447 	0.042473788 	0.010995269 	1.9834553
0.0018090452 	0.044389553 	-0.0052017513 	2.0249352
0.0018291457 	0.044389553 	-0.0052017513 	2.0249352
0.0018492462 	0.015935864 	-0.012851732 	2.0420849
0.0018693467 	0.015935864 	-0.012851732 	2.0420849
0.0018894472 	0.015935864 	-0.012851732 	2.0420849
0.0019095477 	0.0063439648 	-0.046602481 	2.0485914
0.0019296482 	0.0063439648 	-0.046602481 	2.0485914
0.0019497487 	0.033843073 	-0.085464243 	1.974703
0.0019698492 	0.033843073 	-0.085464243 	1.974703
0.0019899497 	0.032087538 	-0.10844588 	1.8941457
0.0020100503 	0.032087538 	-0.10844588 	1.8941457
0.0020301508 	0.032087538 	-0.10844588 	1.8941457
0.0020502513 	0.048675166 	-0.094844855 	1.8984763
0.0020703518 	0.048675166 	-0.094844855 	1.8984763
0.0020904523 	0.068486757 	-0.051455833 	1.9198083
0.0021105528 	0.074086651 	-0.049709209 	1.9340915
0.0021306533 	0.074086651 	-0.049709209 	1.9340915
0.0021507538 	0.082609912 	-0.026183735 	1.9765876
0.0021708543 	0.082609912 	-0.026183735 	1.9765876
0.0021909548 	0.1010802 	-0.0040549487 	2.0262192
0.0022110553 	0.1010802 	-0.0040549487 	2.0262192
0.0022311558 	0.097341043 	0.0099806406 	2.0175553
0.0022512563 	0.097341043 	0.0099806406 	2.0175553
0.0022713568 	0.10540512 	0.011563524 	2.0298378
0.0022914573 	0.10540512 	0.011563524 	2.0298378
0.0023115578 	0.10540512 	0.011563524 	2.0298378
0.0023316583 	0.11737622 	0.0076093526 	2.0829009
0.0023517588 	0.11737622 	0.0076093526 	2.0829009
0.0023718593 	0.10503868 	0.0084701848 	2.0780369
0.0023919598 	0.10503868 	0.0084701848 	2.0780369
0.0024120603 	0.11421256 	0.026551502 	2.0770798
0.0024321608 	0.11421256 	0.026551502 	2.0770798
0.0024522613 	0.117485 	0.030300407 	2.0523383
0.0024723618 	0.117485 	0.030300407 	2.0523383
0.0024924623 	0.097663684 	0.0027516455 	2.0015942
0.0025125628 	0.097663684 	0.0027516455 	2.0015942
0.0025326633 	0.10002495 	-0.025820879 	2.0290075
0.0025527638 	0.10002495 	-0.025820879 	2.0290075
0.0025728643 	0.085829772 	-0.029643937 	2.0641985
0.0025929648 	0.085829772 	-0.029643937 	2.0641985
0.0026130653 	0.054098119 	-0.041965213 	2.0209697
0.0026331658 	0.054098119 	-0.041965213 	2.0209697
0.0026532663 	0.025377156 	-0.0097757829 	1.9972913
0.0026733668 	0.025377156 	-0.0097757829 	1.9972913
0.0026934673 	0.0066167643 	0.026803332 	1.9604788
0.0027135678 	0.0066167643 	0.026803332 	1.9604788
0.0027336683 	0.0053771035 	-0.0025056421 	1.925808
0.0027537688 	0.0053771035 	-0.0025056421 	1.925808
0.0027738693 	6.3109049e-06 	-0.047531327 	1.9768097
0.0027939698 	6.3109049e-06 	-0.047531327 	1.9768097
0.0028140704 	-0.0073699775 	-0.070532164 	1.9451982
0.0028341709 	-0.0073699775 	-0.070532164 	1.9451982
0.0028542714 	-0.0036518624 	-0.073940848 	1.858935
0.0028743719 	0.0021236359 	-0.069192367 	1.8486795
0.0028944724 	0.0021236359 	-0.069192367 	1.8486795
0.0029145729 	0.013401121 	-0.04896179 	1.8485554
0.0029346734 	0.013401121 	-0.04896179 	1.8485554
0.0029547739 	0.012869621 	-0.051141903 	1.8520046
0.0029748744 	0.012869621 	-0.051141903 	1.8520046
0.0029949749 	0.0097662242 	-0.063120514 	1.8851961
0.0030150754 	0.0054629954 	-0.067934309 	1.9186025
0.0030351759 	0.0054629954 	-0.067934309 	1.9186025
0.0030552764 	0.0012249116 	-0.04757093 	1.9136038
0.0030753769 	0.0012249116 	-0.04757093 	1.9136038
0.0030954774 	-0.0016604394 	-0.029089576 	1.8671252
0.0031155779 	-0.0080025536 	0.010080363 	1.8378716
0.0031356784 	-0.0080025536 	0.010080363 	1.8378716
0.0031557789 	-0.016328886 	0.034587765 	1.7982599
0.0031758794 	-0.016328886 	0.034587765 	1.7982599
0.0031959799 	-0.025128654 	-0.014143922 	1.7474707
0.0032160804 	-0.029118737 	-0.061761924 	1.7168915
0.0032361809 	-0.029118737 	-0.061761924 	1.7168915
0.0032562814 	-0.035438417 	-0.056287446 	1.7091143
0.0032763819 	-0.034016424 	-0.036166113 	1.7275874
0.0032964824 	-0.034016424 	-0.036166113 	1.7275874
0.0033165829 	-0.035447173 	-0.020834205 	1.7816817
0.0033366834 	-0.029610384 	0.0018106019 	1.7905799
0.0033567839 	-0.029610384 	0.0018106019 	1.7905799
0.0033768844 	-0.018050037 	0.039759248 	1.7851385
0.0033969849 	-0.011557827 	0.05693386 	1.7877208
0.0034170854 	-0.011557827 	0.05693386 	1.7877208
0.0034371859 	-0.0044237254 	0.035917941 	1.7724649
0.0034572864 	0.0026108393 	-0.0062426505 	1.7389604
0.0034773869 	0.013112251 	-0.048813143 	1.7169124
0.0034974874 	0.013112251 	-0.048813143 	1.7169124
0.0035175879 	0.019142878 	-0.074122907 	1.707402
0.0035376884 	0.023558428 	-0.11285474 	1.6947031
0.0035577889 	0.024216766 	-0.15913966 	1.6651023
0.0035778894 	0.024216766 	-0.15913966 	1.6651023
0.0035979899 	0.024474352 	-0.14274484 	1.6753761
0.0036180905 	0.02467261 	-0.10136461 	1.703354
0.003638191 	0.015878851 	-0.091197662 	1.7258668
0.0036582915 	0.015878851 	-0.091197662 	1.7258668
0.003678392 	0.012804198 	-0.090776147 	1.7909927
0.0036984925 	0.0057723139 	-0.099366894 	1.8344866
0.003718593 	0.008105379 	-0.097121613 	1.7947317
0.0037386935 	0.011858413 	-0.086251578 	1.6950504
0.003758794 	0.016323128 	-0.075343644 	1.575783
0.0037788945 	0.016323128 	-0.075343644 	1.575783
0.003798995 	0.014436594 	-0.071679413 	1.5020518
0.0038190955 	0.022140978 	-0.052083162 	1.499266
0.003839196 	0.019515453 	-0.057773659 	1.6010984
0.0038592965 	0.053326298 	-0.12079341 	1.6248645
0.003879397 	0.047601696 	-0.089378386 	1.5785649
0.0038994975 	0.084812836 	-0.08852646 	1.4103375
0.003919598 	0.036258848 	-0.0085181816 	1.4067922
0.0039396985 	0.043622402 	-0.012771623 	1.1307008
0.003959799 	0.011543898 	-0.33846407 	1.0359853
0.0039798995 	-0.015938927 	0.055495286 	0.54252416
0.004 	-0.015938927 	0.055495286 	0.54252416
