0 	0.024407469 	-0.013030711 	2.0651321
2.0100503e-05 	0.014792508 	0.021426311 	2.0669523
4.0201005e-05 	0.014792508 	0.021426311 	2.0669523
6.0301508e-05 	0.0090950955 	0.023981489 	2.0594852
8.040201e-05 	0.0090950955 	0.023981489 	2.0594852
0.00010050251 	0.0090950955 	0.023981489 	2.0594852
0.00012060302 	0.014194949 	0.031220063 	2.073779
0.00014070352 	0.014194949 	0.031220063 	2.073779
0.00016080402 	0.014194949 	0.031220063 	2.073779
0.00018090452 	0.011921689 	0.032991947 	2.0833988
0.00020100503 	0.011921689 	0.032991947 	2.0833988
0.00022110553 	0.011921689 	0.032991947 	2.0833988
0.00024120603 	0.01593572 	0.031049687 	2.0591269
0.00026130653 	0.01593572 	0.031049687 	2.0591269
0.00028140704 	0.025596589 	0.032026065 	2.0395076
0.00030150754 	0.025596589 	0.032026065 	2.0395076
0.00032160804 	0.025596589 	0.032026065 	2.0395076
0.00034170854 	0.038241536 	0.012004388 	2.0012042
0.00036180905 	0.038241536 	0.012004388 	2.0012042
0.00038190955 	0.038241536 	0.012004388 	2.0012042
0.00040201005 	0.041617553 	0.010883474 	2.0184016
0.00042211055 	0.041617553 	0.010883474 	2.0184016
0.00044221106 	0.041617553 	0.010883474 	2.0184016
0.00046231156 	0.04699279 	0.0051298607 	2.0289543
0.00048241206 	0.04699279 	0.0051298607 	2.0289543
0.00050251256 	0.053144858 	0.01276683 	2.0431521
0.00052261307 	0.053144858 	0.01276683 	2.0431521
0.00054271357 	0.053144858 	0.01276683 	2.0431521
0.00056281407 	0.045644771 	0.029435268 	2.0585237
0.00058291457 	0.045644771 	0.029435268 	2.0585237
0.00060301508 	0.045644771 	0.029435268 	2.0585237
0.00062311558 	0.046775075 	0.038051886 	2.0659599
0.00064321608 	0.046775075 	0.038051886 	2.0659599
0.00066331658 	0.046775075 	0.038051886 	2.0659599
0.00068341709 	0.039964996 	0.054014895 	2.0566955
0.00070351759 	0.039964996 	0.054014895 	2.0566955
0.00072361809 	0.039986548 	0.016786436 	2.0424613
0.00074371859 	0.039986548 	0.016786436 	2.0424613
0.0007638191 	0.039986548 	0.016786436 	2.0424613
0.0007839196 	0.038087647 	-0.030348414 	2.0375898
0.0008040201 	0.038087647 	-0.030348414 	2.0375898
0.0008241206 	0.038087647 	-0.030348414 	2.0375898
0.00084422111 	0.038954263 	-0.0679045 	1.9870123
0.00086432161 	0.038954263 	-0.0679045 	1.9870123
0.00088442211 	0.038954263 	-0.0679045 	1.9870123
0.00090452261 	0.032997021 	-0.090146515 	1.9211768
0.00092462312 	0.032997021 	-0.090146515 	1.9211768
0.00094472362 	0.011406088 	-0.084644254 	1.9196926
0.00096482412 	0.011406088 	-0.084644254 	1.9196926
0.00098492462 	0.011406088 	-0.084644254 	1.9196926
0.0010050251 	0.018454397 	-0.080153125 	1.906305
0.0010251256 	0.018454397 	-0.080153125 	1.906305
0.0010452261 	0.018454397 	-0.080153125 	1.906305
0.0010653266 	-0.0062281619 	-0.059256346 	1.8848932
0.0010854271 	-0.0062281619 	-0.059256346 	1.8848932
0.0011055276 	-0.0034499114 	-0.056470728 	1.9207095
0.0011256281 	0.0077470792 	-0.051001325 	1.9080385
0.0011457286 	0.0077470792 	-0.051001325 	1.9080385
0.0011658291 	0.0096748564 	-0.031381682 	1.882031
0.0011859296 	0.0070115305 	-0.035397045 	1.8999645
0.0012060302 	0.0070115305 	-0.035397045 	1.8999645
0.0012261307 	0.0070115305 	-0.035397045 	1.8999645
0.0012462312 	0.014161616 	-0.013704325 	1.9448151
0.0012663317 	0.014161616 	-0.013704325 	1.9448151
0.0012864322 	0.014161616 	-0.013704325 	1.9448151
0.0013065327 	0.033780997 	-0.017839056 	1.9626496
0.0013266332 	0.033780997 	-0.017839056 	1.9626496
0.0013467337 	0.033780997 	-0.017839056 	1.9626496
0.0013668342 	0.053261894 	-0.010016909 	2.0037906
0.0013869347 	0.053261894 	-0.010016909 	2.0037906
0.0014070352 	0.053261894 	-0.010016909 	2.0037906
0.0014271357 	0.044859791 	0.018373393 	2.0669045
0.0014472362 	0.044859791 	0.018373393 	2.0669045
0.0014673367 	0.044859791 	0.018373393 	2.0669045
0.0014874372 	0.038203802 	0.047266017 	2.0433001
0.0015075377 	0.038203802 	0.047266017 	2.0433001
0.0015276382 	0.02949562 	0.06795111 	2.0115584
0.0015477387 	0.02949562 	0.06795111 	2.0115584
0.0015678392 	0.02949562 	0.06795111 	2.0115584
0.0015879397 	0.031232988 	0.085047687 	1.9700279
0.0016080402 	0.031232988 	0.085047687 	1.9700279
0.0016281407 	0.031232988 	0.085047687 	1.9700279
0.0016482412 	0.033575232 	0.081152675 	1.975026
0.0016683417 	0.033575232 	0.081152675 	1.975026
0.0016884422 	0.033469703 	0.04414979 	1.9817562
0.0017085427 	0.033469703 	0.04414979 	1.9817562
0.0017286432 	0.033469703 	0.04414979 	1.9817562
0.0017487437 	0.030332279 	0.049659389 	1.9384711
0.0017688442 	0.030332279 	0.049659389 	1.9384711
0.0017889447 	0.030332279 	0.049659389 	1.9384711
0.0018090452 	0.036189159 	0.04084459 	1.9352062
0.0018291457 	0.036189159 	0.04084459 	1.9352062
0.0018492462 	0.033556807 	0.01260219 	1.9487433
0.0018693467 	0.033556807 	0.01260219 	1.9487433
0.0018894472 	0.033556807 	0.01260219 	1.9487433
0.0019095477 	0.042776022 	-0.026781642 	1.9274472
0.0019296482 	0.042776022 	-0.026781642 	1.9274472
0.0019497487 	0.039175444 	-0.032957935 	1.9306474
0.0019698492 	0.039175444 	-0.032957935 	1.9306474
0.0019899497 	0.039175444 	-0.032957935 	1.9306474
0.0020100503 	0.038920223 	-0.036742275 	1.9389998
0.0020301508 	0.038920223 	-0.036742275 	1.9389998
0.0020502513 	0.031090479 	-0.02783661 	1.9699524
0.0020703518 	0.031090479 	-0.02783661 	1.9699524
0.0020904523 	0.024369266 	0.036330084 	1.9696701
0.0021105528 	0.024369266 	0.036330084 	1.9696701
0.0021306533 	0.024369266 	0.036330084 	1.9696701
0.0021507538 	0.037505831 	0.062904797 	1.9952641
0.0021708543 	0.037505831 	0.062904797 	1.9952641
0.0021909548 	0.052064189 	0.050364528 	2.0486197
0.0022110553 	0.052064189 	0.050364528 	2.0486197
0.0022311558 	0.03916204 	0.054925033 	2.0539027
0.0022512563 	0.03916204 	0.054925033 	2.0539027
0.0022713568 	0.039091525 	0.074997304 	2.0814844
0.0022914573 	0.039091525 	0.074997304 	2.0814844
0.0023115578 	0.039091525 	0.074997304 	2.0814844
0.0023316583 	0.023898574 	0.054108386 	2.0313332
0.0023517588 	0.023898574 	0.054108386 	2.0313332
0.0023718593 	0.033986124 	0.063895728 	2.0157176
0.0023919598 	0.033986124 	0.063895728 	2.0157176
0.0024120603 	0.02489444 	0.068181974 	2.0334671
0.0024321608 	0.02489444 	0.068181974 	2.0334671
0.0024522613 	0.027259043 	0.077649806 	1.9960336
0.0024723618 	0.027259043 	0.077649806 	1.9960336
0.0024924623 	0.012585499 	0.026214193 	1.8272314
0.0025125628 	0.012585499 	0.026214193 	1.8272314
0.0025326633 	-6.0916732e-05 	0.016173822 	1.7759557
0.0025527638 	-6.0916732e-05 	0.016173822 	1.7759557
0.0025728643 	0.0034371943 	0.036957973 	1.9042923
0.0025929648 	0.0034371943 	0.036957973 	1.9042923
0.0026130653 	0.036881359 	0.051302543 	1.8740348
0.0026331658 	0.036881359 	0.051302543 	1.8740348
0.0026532663 	0.033182423 	0.011587715 	1.8260485
0.0026733668 	0.033182423 	0.011587715 	1.8260485
0.0026934673 	0.043522685 	-0.035055685 	1.7768349
0.0027135678 	0.043522685 	-0.035055685 	1.7768349
0.0027336683 	0.030382513 	-0.05323313 	1.7339773
0.0027537688 	0.030382513 	-0.05323313 	1.7339773
0.0027738693 	0.017364547 	-0.052178513 	1.7360145
0.0027939698 	0.017364547 	-0.052178513 	1.7360145
0.0028140704 	-0.0084895035 	0.005502333 	1.7765869
0.0028341709 	-0.0084895035 	0.005502333 	1.7765869
0.0028542714 	-0.029703628 	-0.008646057 	1.875918
0.0028743719 	-0.033607296 	-0.049786257 	1.9023909
0.0028944724 	-0.033607296 	-0.049786257 	1.9023909
0.0029145729 	-0.02770698 	-0.066653767 	1.9882966
0.0029346734 	-0.02770698 	-0.066653767 	1.9882966
0.0029547739 	-0.025454829 	-0.056112979 	2.0139748
0.0029748744 	-0.025454829 	-0.056112979 	2.0139748
0.0029949749 	-0.02786652 	-0.061043047 	1.8916355
0.0030150754 	-0.020366707 	-0.014278454 	1.7480764
0.0030351759 	-0.020366707 	-0.014278454 	1.7480764
0.0030552764 	-0.026809174 	0.010861845 	1.7255664
0.0030753769 	-0.026809174 	0.010861845 	1.7255664
0.0030954774 	-0.028594355 	0.018176183 	1.6837446
0.0031155779 	-0.040359562 	0.080921905 	1.7000316
0.0031356784 	-0.040359562 	0.080921905 	1.7000316
0.0031557789 	-0.047459789 	0.092301811 	1.6545311
0.0031758794 	-0.047459789 	0.092301811 	1.6545311
0.0031959799 	-0.040733833 	0.071877799 	1.6707522
0.0032160804 	-0.015280058 	0.090422998 	1.7815737
0.0032361809 	-0.015280058 	0.090422998 	1.7815737
0.0032562814 	0.0028305548 	0.09545683 	1.7653318
0.0032763819 	0.010006589 	0.069861954 	1.7255387
0.0032964824 	0.010006589 	0.069861954 	1.7255387
0.0033165829 	0.032958445 	0.034250355 	1.6798134
0.0033366834 	0.05526441 	0.0072025445 	1.669824
0.0033567839 	0.05526441 	0.0072025445 	1.669824
0.0033768844 	0.08018275 	0.0036339021 	1.7046746
0.0033969849 	0.098630892 	0.011448754 	1.7017634
0.0034170854 	0.098630892 	0.011448754 	1.7017634
0.0034371859 	0.10853396 	-0.024087311 	1.7093377
0.0034572864 	0.11781798 	-0.058132325 	1.7460395
0.0034773869 	0.11702151 	-0.054733671 	1.7717292
0.0034974874 	0.11702151 	-0.054733671 	1.7717292
0.0035175879 	0.109906 	-0.012251889 	1.7749163
0.0035376884 	0.092969306 	0.029783492 	1.756901
0.0035577889 	0.085887149 	0.021402922 	1.7472174
0.0035778894 	0.085887149 	0.021402922 	1.7472174
0.0035979899 	0.082842911 	0.0039555385 	1.7329031
0.0036180905 	0.083363759 	0.018179366 	1.7279817
0.003638191 	0.081960921 	0.033378015 	1.729226
0.0036582915 	0.081960921 	0.033378015 	1.729226
0.003678392 	0.081117763 	0.025793811 	1.7569963
0.0036984925 	0.069281155 	-0.015014142 	1.7803621
0.003718593 	0.05005766 	-0.080636984 	1.7529788
0.0037386935 	0.033214505 	-0.11064066 	1.7475428
0.003758794 	0.021466767 	-0.025577073 	1.8492998
0.0037788945 	0.021466767 	-0.025577073 	1.8492998
0.003798995 	0.005645961 	0.049064705 	1.9423458
0.0038190955 	-0.0095292499 	-0.013933216 	1.8649926
0.003839196 	-0.0075248596 	-0.11444195 	1.6864656
0.0038592965 	-0.027838189 	-0.1646385 	1.4480544
0.003879397 	-0.027153981 	-0.10118568 	1.2897824
0.0038994975 	-0.03347371 	0.033589712 	1.2849747
0.003919598 	-0.017965469 	0.070183758 	1.3208553
0.0039396985 	-0.049122757 	0.069836903 	1.2609735
0.003959799 	0.0031140741 	-0.47296161 	1.0006047
0.0039798995 	-0.0016996794 	0.0090217712 	0.7396248
0.004 	-0.0016996794 	0.0090217712 	0.7396248
