0 	-0.015431201 	-0.008602258 	2.0608446
2.0100503e-05 	-0.015431201 	-0.008602258 	2.0608446
4.0201005e-05 	-0.015431201 	-0.008602258 	2.0608446
6.0301508e-05 	-0.0015912879 	-0.025734915 	2.0885284
8.040201e-05 	-0.0015912879 	-0.025734915 	2.0885284
0.00010050251 	-0.0015912879 	-0.025734915 	2.0885284
0.00012060302 	0.014226265 	-0.020183969 	2.088366
0.00014070352 	0.016204569 	-0.0017617552 	2.0738486
0.00016080402 	0.016204569 	-0.0017617552 	2.0738486
0.00018090452 	0.021560703 	0.018331906 	2.0554754
0.00020100503 	0.021560703 	0.018331906 	2.0554754
0.00022110553 	0.021560703 	0.018331906 	2.0554754
0.00024120603 	0.018596712 	0.028542533 	2.0433945
0.00026130653 	0.032887195 	0.016750224 	2.0429236
0.00028140704 	0.032342516 	0.012648775 	2.038086
0.00030150754 	0.032342516 	0.012648775 	2.038086
0.00032160804 	0.032342516 	0.012648775 	2.038086
0.00034170854 	0.015698028 	0.005325423 	2.0504783
0.00036180905 	0.015698028 	0.005325423 	2.0504783
0.00038190955 	0.015698028 	0.005325423 	2.0504783
0.00040201005 	0.008350789 	-0.00094130161 	2.030953
0.00042211055 	0.008350789 	-0.00094130161 	2.030953
0.00044221106 	0.008350789 	-0.00094130161 	2.030953
0.00046231156 	0.0042159293 	-0.0018605363 	2.0338641
0.00048241206 	0.0042159293 	-0.0018605363 	2.0338641
0.00050251256 	0.0054389499 	0.0083675209 	2.0576425
0.00052261307 	0.0054389499 	0.0083675209 	2.0576425
0.00054271357 	0.0054389499 	0.0083675209 	2.0576425
0.00056281407 	0.015486778 	0.0079781305 	2.0737061
0.00058291457 	0.015486778 	0.0079781305 	2.0737061
0.00060301508 	0.015486778 	0.0079781305 	2.0737061
0.00062311558 	0.013688576 	-0.0051892142 	2.0810478
0.00064321608 	0.013688576 	-0.0051892142 	2.0810478
0.00066331658 	0.013688576 	-0.0051892142 	2.0810478
0.00068341709 	0.0092990729 	-0.016515441 	2.0654692
0.00070351759 	0.0092990729 	-0.016515441 	2.0654692
0.00072361809 	0.0010082194 	-0.020568092 	2.0562094
0.00074371859 	0.0010082194 	-0.020568092 	2.0562094
0.0007638191 	0.0010082194 	-0.020568092 	2.0562094
0.0007839196 	-0.0085300803 	-0.015267433 	2.049354
0.0008040201 	-0.0085300803 	-0.015267433 	2.049354
0.0008241206 	-0.0085300803 	-0.015267433 	2.049354
0.00084422111 	0.013245806 	0.0032401994 	2.0654033
0.00086432161 	0.013245806 	0.0032401994 	2.0654033
0.00088442211 	0.013245806 	0.0032401994 	2.0654033
0.00090452261 	0.010465386 	-0.0048086421 	2.0742523
0.00092462312 	0.010465386 	-0.0048086421 	2.0742523
0.00094472362 	0.021017865 	0.0087308598 	2.0770925
0.00096482412 	0.021017865 	0.0087308598 	2.0770925
0.00098492462 	0.021017865 	0.0087308598 	2.0770925
0.0010050251 	0.020971286 	-0.011670442 	2.0891853
0.0010251256 	-0.012944347 	-0.0033960347 	2.0800501
0.0010452261 	-0.012944347 	-0.0033960347 	2.0800501
0.0010653266 	0.006268053 	-0.039520933 	2.0515983
0.0010854271 	0.006268053 	-0.039520933 	2.0515983
0.0011055276 	0.006268053 	-0.039520933 	2.0515983
0.0011256281 	0.0070751979 	-0.054693025 	2.0411871
0.0011457286 	0.0070751979 	-0.054693025 	2.0411871
0.0011658291 	0.0070751979 	-0.054693025 	2.0411871
0.0011859296 	0.011020011 	-0.054606664 	2.046967
0.0012060302 	0.011020011 	-0.054606664 	2.046967
0.0012261307 	0.011020011 	-0.054606664 	2.046967
0.0012462312 	0.021071652 	-0.030770414 	2.0634969
0.0012663317 	0.021071652 	-0.030770414 	2.0634969
0.0012864322 	0.021071652 	-0.030770414 	2.0634969
0.0013065327 	0.02071922 	-0.0066741978 	2.037769
0.0013266332 	0.02071922 	-0.0066741978 	2.037769
0.0013467337 	0.02071922 	-0.0066741978 	2.037769
0.0013668342 	0.018648255 	0.00098092754 	2.0233387
0.0013869347 	0.018648255 	0.00098092754 	2.0233387
0.0014070352 	0.018648255 	0.00098092754 	2.0233387
0.0014271357 	0.0072283374 	0.0047011541 	2.0241293
0.0014472362 	0.0072283374 	0.0047011541 	2.0241293
0.0014673367 	0.0072283374 	0.0047011541 	2.0241293
0.0014874372 	0.0010220304 	-0.0061204687 	2.0066652
0.0015075377 	0.0010220304 	-0.0061204687 	2.0066652
0.0015276382 	-0.014838715 	-0.010119112 	1.9833941
0.0015477387 	-0.014838715 	-0.010119112 	1.9833941
0.0015678392 	-0.014838715 	-0.010119112 	1.9833941
0.0015879397 	0.001210155 	-0.014398533 	1.9923894
0.0016080402 	0.001210155 	-0.014398533 	1.9923894
0.0016281407 	0.001210155 	-0.014398533 	1.9923894
0.0016482412 	0.013767875 	0.015832179 	1.9704422
0.0016683417 	0.013767875 	0.015832179 	1.9704422
0.0016884422 	0.028478664 	0.059810708 	1.9599681
0.0017085427 	0.028478664 	0.059810708 	1.9599681
0.0017286432 	0.028478664 	0.059810708 	1.9599681
0.0017487437 	0.032575325 	0.062477633 	1.9430014
0.0017688442 	0.032575325 	0.062477633 	1.9430014
0.0017889447 	0.032575325 	0.062477633 	1.9430014
0.0018090452 	0.032477897 	0.06058884 	1.948307
0.0018291457 	0.032477897 	0.06058884 	1.948307
0.0018492462 	0.039305887 	0.066474582 	1.9372117
0.0018693467 	0.039305887 	0.066474582 	1.9372117
0.0018894472 	0.039305887 	0.066474582 	1.9372117
0.0019095477 	0.048034958 	0.075092622 	1.9263351
0.0019296482 	0.048034958 	0.075092622 	1.9263351
0.0019497487 	0.053192346 	0.035341302 	1.9530964
0.0019698492 	0.053192346 	0.035341302 	1.9530964
0.0019899497 	0.060987454 	0.02698434 	1.9592098
0.0020100503 	0.060987454 	0.02698434 	1.9592098
0.0020301508 	0.060987454 	0.02698434 	1.9592098
0.0020502513 	0.042782922 	0.025334873 	1.9718581
0.0020703518 	0.042782922 	0.025334873 	1.9718581
0.0020904523 	0.021645943 	-0.0034430068 	1.9605122
0.0021105528 	0.021645943 	-0.0034430068 	1.9605122
0.0021306533 	0.021645943 	-0.0034430068 	1.9605122
0.0021507538 	0.01743425 	0.012139252 	1.8898995
0.0021708543 	0.01743425 	0.012139252 	1.8898995
0.0021909548 	0.012082727 	0.0042563784 	1.9357681
0.0022110553 	0.012082727 	0.0042563784 	1.9357681
0.0022311558 	0.0026251588 	0.030731436 	1.8962411
0.0022512563 	0.0026251588 	0.030731436 	1.8962411
0.0022713568 	0.026053967 	0.036709021 	1.7374427
0.0022914573 	0.026053967 	0.036709021 	1.7374427
0.0023115578 	0.026053967 	0.036709021 	1.7374427
0.0023316583 	0.0046144864 	0.021608801 	1.8301324
0.0023517588 	0.0046144864 	0.021608801 	1.8301324
0.0023718593 	-0.0026734455 	0.046960317 	1.9787287
0.0023919598 	-0.0026734455 	0.046960317 	1.9787287
0.0024120603 	0.0060572359 	0.091140035 	1.9206768
0.0024321608 	0.0060572359 	0.091140035 	1.9206768
0.0024522613 	0.0060184737 	0.12447321 	1.8424976
0.0024723618 	0.0060184737 	0.12447321 	1.8424976
0.0024924623 	0.0055996095 	0.097208444 	1.8314676
0.0025125628 	0.0055996095 	0.097208444 	1.8314676
0.0025326633 	0.0033581735 	0.03684529 	1.7962594
0.0025527638 	0.0033581735 	0.03684529 	1.7962594
0.0025728643 	-0.0053233206 	-0.0065966365 	1.8676738
0.0025929648 	-0.0053233206 	-0.0065966365 	1.8676738
0.0026130653 	0.0061021918 	0.021659281 	2.005355
0.0026331658 	0.0061021918 	0.021659281 	2.005355
0.0026532663 	-0.011207209 	0.046003056 	1.9817564
0.0026733668 	-0.011207209 	0.046003056 	1.9817564
0.0026934673 	0.0005780117 	0.039004222 	1.9526772
0.0027135678 	0.0005780117 	0.039004222 	1.9526772
0.0027336683 	-0.0058415759 	0.041649296 	1.9535033
0.0027537688 	-0.0058415759 	0.041649296 	1.9535033
0.0027738693 	0.017124985 	-0.007389012 	1.9488124
0.0027939698 	0.017124985 	-0.007389012 	1.9488124
0.0028140704 	0.032583712 	-0.0072058044 	1.9420276
0.0028341709 	0.032583712 	-0.0072058044 	1.9420276
0.0028542714 	0.055693867 	-0.0029058755 	1.9065531
0.0028743719 	0.05898761 	-0.026298295 	1.9158336
0.0028944724 	0.05898761 	-0.026298295 	1.9158336
0.0029145729 	0.079675121 	-0.029399554 	1.9641104
0.0029346734 	0.079675121 	-0.029399554 	1.9641104
0.0029547739 	0.072647627 	-0.089896571 	1.9669852
0.0029748744 	0.072647627 	-0.089896571 	1.9669852
0.0029949749 	0.051752861 	-0.08050372 	2.0554744
0.0030150754 	0.037641614 	-0.008228385 	2.0704912
0.0030351759 	0.037641614 	-0.008228385 	2.0704912
0.0030552764 	0.041747004 	-0.00099287887 	1.9587316
0.0030753769 	0.041747004 	-0.00099287887 	1.9587316
0.0030954774 	0.05013301 	-0.027531986 	1.969213
0.0031155779 	0.033079988 	-0.066760011 	1.9557991
0.0031356784 	0.033079988 	-0.066760011 	1.9557991
0.0031557789 	0.030592325 	-0.09593373 	1.9490717
0.0031758794 	0.030592325 	-0.09593373 	1.9490717
0.0031959799 	0.029314583 	-0.11527943 	1.939899
0.0032160804 	0.0278688 	-0.13596574 	1.9358711
0.0032361809 	0.0278688 	-0.13596574 	1.9358711
0.0032562814 	0.020866254 	-0.094008148 	1.9510565
0.0032763819 	0.022108969 	-0.079360876 	1.9765434
0.0032964824 	0.022108969 	-0.079360876 	1.9765434
0.0033165829 	0.022176829 	-0.095049106 	1.9930115
0.0033366834 	0.016322176 	-0.11228863 	1.965673
0.0033567839 	0.016322176 	-0.11228863 	1.965673
0.0033768844 	0.018562262 	-0.10136787 	1.8391019
0.0033969849 	0.035120213 	-0.096776541 	1.7566954
0.0034170854 	0.035120213 	-0.096776541 	1.7566954
0.0034371859 	0.047792402 	-0.11471137 	1.759349
0.0034572864 	0.047630574 	-0.07865096 	1.6934467
0.0034773869 	0.031256854 	-0.026433625 	1.6775538
0.0034974874 	0.031256854 	-0.026433625 	1.6775538
0.0035175879 	0.011306196 	0.01032661 	1.7217166
0.0035376884 	0.0079285394 	0.033170233 	1.7270428
0.0035577889 	-0.0081446004 	0.043948701 	1.6963911
0.0035778894 	-0.0081446004 	0.043948701 	1.6963911
0.0035979899 	-0.021575408 	0.035215107 	1.6869058
0.0036180905 	-0.032070161 	0.020072658 	1.709238
0.003638191 	-0.041520242 	0.026670949 	1.7239392
0.0036582915 	-0.041520242 	0.026670949 	1.7239392
0.003678392 	-0.049493785 	0.041051189 	1.7125203
0.0036984925 	-0.048236728 	0.069073566 	1.6767865
0.003718593 	-0.046756095 	0.07853901 	1.6365569
0.0037386935 	-0.04394504 	0.04291609 	1.6127196
0.003758794 	-0.040469581 	0.014900079 	1.595843
0.0037788945 	-0.040469581 	0.014900079 	1.595843
0.003798995 	-0.038700556 	0.00017163673 	1.5608361
0.0038190955 	-0.049895342 	-0.014263454 	1.5748664
0.003839196 	-0.044912285 	-0.092867876 	1.5538303
0.0038592965 	-0.045858441 	-0.033518226 	1.470497
0.003879397 	-0.075986014 	0.085638929 	1.4745901
0.0038994975 	-0.049417358 	0.11438459 	1.6581799
0.003919598 	-0.05615905 	0.28388994 	1.8819291
0.0039396985 	-0.036945062 	0.19971207 	1.6279197
0.003959799 	0.0060841948 	0.053193088 	1.6782378
0.0039798995 	-0.0027902322 	-0.0015393279 	0.42525855
0.004 	-0.0027902322 	-0.0015393279 	0.42525855
