0 	-0.0022790952 	-0.015735777 	2.1244737
2.0100503e-05 	-0.012017504 	-0.006100887 	2.1191866
4.0201005e-05 	-0.012017504 	-0.006100887 	2.1191866
6.0301508e-05 	-0.0089576129 	-0.011237841 	2.1039069
8.040201e-05 	-0.0089576129 	-0.011237841 	2.1039069
0.00010050251 	-0.0089576129 	-0.011237841 	2.1039069
0.00012060302 	-0.010354026 	-0.028273002 	2.0779653
0.00014070352 	-0.027779608 	-0.018925295 	2.055549
0.00016080402 	-0.027779608 	-0.018925295 	2.055549
0.00018090452 	-0.033436093 	-0.041591847 	2.0509806
0.00020100503 	-0.033436093 	-0.041591847 	2.0509806
0.00022110553 	-0.033436093 	-0.041591847 	2.0509806
0.00024120603 	-0.028265133 	-0.046636936 	2.0530276
0.00026130653 	-0.028265133 	-0.046636936 	2.0530276
0.00028140704 	-0.011310166 	-0.049785355 	2.0507971
0.00030150754 	-0.011310166 	-0.049785355 	2.0507971
0.00032160804 	-0.011310166 	-0.049785355 	2.0507971
0.00034170854 	-0.0058086421 	-0.04812012 	2.0593837
0.00036180905 	-0.0058086421 	-0.04812012 	2.0593837
0.00038190955 	-0.0058086421 	-0.04812012 	2.0593837
0.00040201005 	-0.0093688953 	-0.04731338 	2.0330487
0.00042211055 	-0.0093688953 	-0.04731338 	2.0330487
0.00044221106 	-0.0093688953 	-0.04731338 	2.0330487
0.00046231156 	0.0030334789 	-0.035017319 	2.0523651
0.00048241206 	0.0030334789 	-0.035017319 	2.0523651
0.00050251256 	0.01696724 	-0.023629595 	2.066634
0.00052261307 	0.01696724 	-0.023629595 	2.066634
0.00054271357 	0.01696724 	-0.023629595 	2.066634
0.00056281407 	0.027115202 	-0.022952623 	2.0548031
0.00058291457 	0.027115202 	-0.022952623 	2.0548031
0.00060301508 	0.027115202 	-0.022952623 	2.0548031
0.00062311558 	0.030190801 	-0.029358778 	2.0426472
0.00064321608 	0.030190801 	-0.029358778 	2.0426472
0.00066331658 	0.030190801 	-0.029358778 	2.0426472
0.00068341709 	0.033143055 	-0.015143715 	2.0749135
0.00070351759 	0.033143055 	-0.015143715 	2.0749135
0.00072361809 	0.0331662 	-0.014700194 	2.0432513
0.00074371859 	0.0331662 	-0.014700194 	2.0432513
0.0007638191 	0.033399799 	-0.0025369964 	2.0325409
0.0007839196 	0.016457348 	0.0027544112 	2.0129832
0.0008040201 	0.016457348 	0.0027544112 	2.0129832
0.0008241206 	0.016457348 	0.0027544112 	2.0129832
0.00084422111 	0.012859071 	0.0035881626 	2.0473278
0.00086432161 	0.031240071 	0.0037371819 	2.0281012
0.00088442211 	0.031240071 	0.0037371819 	2.0281012
0.00090452261 	0.03022704 	-0.011987022 	2.0739501
0.00092462312 	0.03022704 	-0.011987022 	2.0739501
0.00094472362 	0.0037716389 	-0.011780136 	2.0688207
0.00096482412 	0.0037716389 	-0.011780136 	2.0688207
0.00098492462 	0.0037716389 	-0.011780136 	2.0688207
0.0010050251 	0.0059574788 	0.025312097 	2.0371666
0.0010251256 	0.0059574788 	0.025312097 	2.0371666
0.0010452261 	0.0059574788 	0.025312097 	2.0371666
0.0010653266 	0.00086220105 	0.02555787 	2.0636406
0.0010854271 	0.00086220105 	0.02555787 	2.0636406
0.0011055276 	0.00086220105 	0.02555787 	2.0636406
0.0011256281 	0.0035154561 	0.0061188528 	2.0744348
0.0011457286 	0.0035154561 	0.0061188528 	2.0744348
0.0011658291 	0.0035154561 	0.0061188528 	2.0744348
0.0011859296 	0.0053474846 	0.0043339247 	2.103969
0.0012060302 	0.0053474846 	0.0043339247 	2.103969
0.0012261307 	0.0053474846 	0.0043339247 	2.103969
0.0012462312 	-0.014955051 	0.011027595 	2.127062
0.0012663317 	-0.014955051 	0.011027595 	2.127062
0.0012864322 	-0.014955051 	0.011027595 	2.127062
0.0013065327 	-0.0034939229 	0.0019621632 	2.0915546
0.0013266332 	-0.0034939229 	0.0019621632 	2.0915546
0.0013467337 	-0.0034939229 	0.0019621632 	2.0915546
0.0013668342 	0.010791926 	-0.017634499 	2.1124918
0.0013869347 	0.010791926 	-0.017634499 	2.1124918
0.0014070352 	0.010791926 	-0.017634499 	2.1124918
0.0014271357 	0.0006937101 	-0.013004538 	2.1534302
0.0014472362 	0.0006937101 	-0.013004538 	2.1534302
0.0014673367 	0.0006937101 	-0.013004538 	2.1534302
0.0014874372 	-0.020519294 	-0.0043022215 	2.1278262
0.0015075377 	-0.020519294 	-0.0043022215 	2.1278262
0.0015276382 	-0.053354191 	-0.0070155273 	2.0718274
0.0015477387 	-0.053354191 	-0.0070155273 	2.0718274
0.0015678392 	-0.053354191 	-0.0070155273 	2.0718274
0.0015879397 	-0.052294598 	-0.00014083517 	2.028374
0.0016080402 	-0.052294598 	-0.00014083517 	2.028374
0.0016281407 	-0.052294598 	-0.00014083517 	2.028374
0.0016482412 	-0.044963759 	7.5096582e-05 	2.0106114
0.0016683417 	-0.044963759 	7.5096582e-05 	2.0106114
0.0016884422 	-0.043320037 	0.0046708343 	1.9865969
0.0017085427 	-0.043320037 	0.0046708343 	1.9865969
0.0017286432 	-0.043320037 	0.0046708343 	1.9865969
0.0017487437 	-0.050363519 	-0.0096684044 	2.0605461
0.0017688442 	-0.050363519 	-0.0096684044 	2.0605461
0.0017889447 	-0.050363519 	-0.0096684044 	2.0605461
0.0018090452 	-0.049082408 	0.013128939 	2.0839279
0.0018291457 	-0.049082408 	0.013128939 	2.0839279
0.0018492462 	-0.051631346 	0.014998119 	2.0264249
0.0018693467 	-0.051631346 	0.014998119 	2.0264249
0.0018894472 	-0.051631346 	0.014998119 	2.0264249
0.0019095477 	-0.046308851 	-0.0039268256 	1.9529229
0.0019296482 	-0.046308851 	-0.0039268256 	1.9529229
0.0019497487 	-0.061753871 	-0.010779528 	1.8882205
0.0019698492 	-0.061753871 	-0.010779528 	1.8882205
0.0019899497 	-0.07694671 	-0.0088603321 	1.8501081
0.0020100503 	-0.07694671 	-0.0088603321 	1.8501081
0.0020301508 	-0.07694671 	-0.0088603321 	1.8501081
0.0020502513 	-0.091186558 	-0.0079136968 	1.7948646
0.0020703518 	-0.091186558 	-0.0079136968 	1.7948646
0.0020904523 	-0.11500058 	-0.012607363 	1.741584
0.0021105528 	-0.11500058 	-0.012607363 	1.741584
0.0021306533 	-0.11500058 	-0.012607363 	1.741584
0.0021507538 	-0.13448728 	-0.015088306 	1.8562818
0.0021708543 	-0.13448728 	-0.015088306 	1.8562818
0.0021909548 	-0.11099321 	-0.018094313 	1.8726459
0.0022110553 	-0.11099321 	-0.018094313 	1.8726459
0.0022311558 	-0.093910133 	-0.015295952 	1.8602153
0.0022512563 	-0.093910133 	-0.015295952 	1.8602153
0.0022713568 	-0.088600085 	0.0039414306 	1.8827078
0.0022914573 	-0.088600085 	0.0039414306 	1.8827078
0.0023115578 	-0.088600085 	0.0039414306 	1.8827078
0.0023316583 	-0.06316849 	0.023954764 	1.8666863
0.0023517588 	-0.06316849 	0.023954764 	1.8666863
0.0023718593 	-0.060499424 	0.030863843 	1.8815935
0.0023919598 	-0.060499424 	0.030863843 	1.8815935
0.0024120603 	-0.03413097 	0.072185948 	1.9261954
0.0024321608 	-0.03413097 	0.072185948 	1.9261954
0.0024522613 	-0.023757506 	0.049455209 	1.9468526
0.0024723618 	-0.023757506 	0.049455209 	1.9468526
0.0024924623 	0.0047530552 	-0.042356935 	1.984917
0.0025125628 	0.0047530552 	-0.042356935 	1.984917
0.0025326633 	-0.0080932499 	-0.077387524 	1.934109
0.0025527638 	-0.0080932499 	-0.077387524 	1.934109
0.0025728643 	0.021014737 	-0.10615835 	1.9226393
0.0025929648 	0.021014737 	-0.10615835 	1.9226393
0.0026130653 	0.0026805516 	-0.082396912 	1.8841505
0.0026331658 	0.0026805516 	-0.082396912 	1.8841505
0.0026532663 	-0.0058867257 	-0.079785015 	1.842016
0.0026733668 	-0.0058867257 	-0.079785015 	1.842016
0.0026934673 	-0.0042993749 	-0.077061097 	1.8439899
0.0027135678 	-0.0042993749 	-0.077061097 	1.8439899
0.0027336683 	-0.0050378736 	-0.064034131 	1.8479576
0.0027537688 	-0.0050378736 	-0.064034131 	1.8479576
0.0027738693 	-0.0010870572 	-0.058420604 	1.8427741
0.0027939698 	-0.0010870572 	-0.058420604 	1.8427741
0.0028140704 	-0.0037172976 	-0.080924563 	1.8554971
0.0028341709 	-0.0037172976 	-0.080924563 	1.8554971
0.0028542714 	-0.0033723218 	-0.083855011 	1.8688552
0.0028743719 	0.010684548 	-0.072170374 	1.8561591
0.0028944724 	0.010684548 	-0.072170374 	1.8561591
0.0029145729 	0.028490847 	-0.090277428 	1.8617794
0.0029346734 	0.028490847 	-0.090277428 	1.8617794
0.0029547739 	0.038069534 	-0.087922876 	1.8701606
0.0029748744 	0.038069534 	-0.087922876 	1.8701606
0.0029949749 	0.045437551 	-0.066949049 	1.8729162
0.0030150754 	0.046354145 	-0.10803042 	1.8928318
0.0030351759 	0.046354145 	-0.10803042 	1.8928318
0.0030552764 	0.03277577 	-0.12397047 	1.9104312
0.0030753769 	0.03277577 	-0.12397047 	1.9104312
0.0030954774 	0.019882745 	-0.079375527 	1.8999448
0.0031155779 	0.017678584 	-0.019306522 	1.878521
0.0031356784 	0.017678584 	-0.019306522 	1.878521
0.0031557789 	0.017639626 	0.0073417491 	1.8663839
0.0031758794 	0.017639626 	0.0073417491 	1.8663839
0.0031959799 	0.012454712 	0.0092571403 	1.8368005
0.0032160804 	0.013460951 	0.018843803 	1.7961671
0.0032361809 	0.013460951 	0.018843803 	1.7961671
0.0032562814 	0.013675891 	0.025384645 	1.7725426
0.0032763819 	0.020923991 	0.02300267 	1.7523165
0.0032964824 	0.020923991 	0.02300267 	1.7523165
0.0033165829 	0.030650073 	0.025649444 	1.7303609
0.0033366834 	0.019441777 	-0.0018392771 	1.7090849
0.0033567839 	0.019441777 	-0.0018392771 	1.7090849
0.0033768844 	0.0033452103 	-0.05049203 	1.6928579
0.0033969849 	-0.018898179 	-0.078490702 	1.6673832
0.0034170854 	-0.018898179 	-0.078490702 	1.6673832
0.0034371859 	-0.048344588 	0.011902816 	1.6971998
0.0034572864 	-0.053595325 	0.11812172 	1.8121631
0.0034773869 	-0.055448885 	0.14038177 	1.8787585
0.0034974874 	-0.055448885 	0.14038177 	1.8787585
0.0035175879 	-0.049952284 	0.082904436 	1.8506882
0.0035376884 	-0.036877809 	0.0011574136 	1.7807788
0.0035577889 	-0.018377918 	-0.040386433 	1.7472331
0.0035778894 	-0.018377918 	-0.040386433 	1.7472331
0.0035979899 	-0.0098477073 	-0.069198481 	1.7268724
0.0036180905 	-0.0083742906 	-0.027099462 	1.7221025
0.003638191 	-0.018968393 	0.017638425 	1.7270651
0.0036582915 	-0.018968393 	0.017638425 	1.7270651
0.003678392 	-0.028923342 	0.0316586 	1.7263297
0.0036984925 	-0.031537519 	0.053730998 	1.7155911
0.003718593 	-0.030488319 	0.076664904 	1.6519222
0.0037386935 	-0.031869356 	0.048660834 	1.5247166
0.003758794 	-0.025216686 	-0.044426136 	1.5167592
0.0037788945 	-0.025216686 	-0.044426136 	1.5167592
0.003798995 	-0.018478612 	-0.075769043 	1.6054396
0.0038190955 	0.0062751087 	-0.05726069 	1.6573376
0.003839196 	0.027724048 	-0.036086241 	1.6981332
0.0038592965 	0.042468452 	0.079074907 	1.7413537
0.003879397 	0.055044493 	0.14364828 	1.8046403
0.0038994975 	0.04760094 	0.17083448 	1.8228769
0.003919598 	0.020358783 	0.2690969 	1.6224221
0.0039396985 	-0.019808266 	0.28658569 	1.5156596
0.003959799 	0.0058380265 	0.38160509 	0.88595324
0.0039798995 	-0.026018264 	-0.11921058 	0.63081898
0.004 	-0.026018264 	-0.11921058 	0.63081898
