0 	-0.0094711102 	-0.0018834607 	2.1152426
2.0100503e-05 	0.010014317 	0.0095967031 	2.0818281
4.0201005e-05 	0.010014317 	0.0095967031 	2.0818281
6.0301508e-05 	0.0099996901 	0.030945518 	2.04474
8.040201e-05 	0.0099996901 	0.030945518 	2.04474
0.00010050251 	0.0099996901 	0.030945518 	2.04474
0.00012060302 	0.0090184137 	0.040332663 	2.036679
0.00014070352 	0.0090184137 	0.040332663 	2.036679
0.00016080402 	0.0090184137 	0.040332663 	2.036679
0.00018090452 	0.0046573442 	0.02824764 	2.059772
0.00020100503 	0.0046573442 	0.02824764 	2.059772
0.00022110553 	0.0046573442 	0.02824764 	2.059772
0.00024120603 	0.0041822491 	0.009137536 	2.0681896
0.00026130653 	0.0041822491 	0.009137536 	2.0681896
0.00028140704 	0.00793264 	0.014777147 	2.0607131
0.00030150754 	0.00793264 	0.014777147 	2.0607131
0.00032160804 	0.00793264 	0.014777147 	2.0607131
0.00034170854 	0.0073647018 	0.036352426 	2.0628185
0.00036180905 	0.0073647018 	0.036352426 	2.0628185
0.00038190955 	0.0073647018 	0.036352426 	2.0628185
0.00040201005 	0.012655579 	0.032765419 	2.0555816
0.00042211055 	0.012655579 	0.032765419 	2.0555816
0.00044221106 	0.012655579 	0.032765419 	2.0555816
0.00046231156 	0.013579386 	0.029028642 	2.0578557
0.00048241206 	0.013579386 	0.029028642 	2.0578557
0.00050251256 	0.013411432 	0.015300291 	2.0776369
0.00052261307 	0.013411432 	0.015300291 	2.0776369
0.00054271357 	0.013411432 	0.015300291 	2.0776369
0.00056281407 	-0.0033703958 	0.019709619 	2.0546964
0.00058291457 	-0.0033703958 	0.019709619 	2.0546964
0.00060301508 	-0.0033703958 	0.019709619 	2.0546964
0.00062311558 	-0.0089170603 	0.012136089 	2.0341286
0.00064321608 	-0.0089170603 	0.012136089 	2.0341286
0.00066331658 	-0.0089170603 	0.012136089 	2.0341286
0.00068341709 	-0.012617745 	-0.0014844981 	2.0206992
0.00070351759 	-0.012617745 	-0.0014844981 	2.0206992
0.00072361809 	-0.013311173 	0.0084944432 	2.0151497
0.00074371859 	-0.013311173 	0.0084944432 	2.0151497
0.0007638191 	-0.013311173 	0.0084944432 	2.0151497
0.0007839196 	-0.024135801 	0.014888818 	2.0154416
0.0008040201 	-0.024135801 	0.014888818 	2.0154416
0.0008241206 	-0.024135801 	0.014888818 	2.0154416
0.00084422111 	-0.027237491 	0.032385896 	2.066392
0.00086432161 	-0.027237491 	0.032385896 	2.066392
0.00088442211 	-0.027237491 	0.032385896 	2.066392
0.00090452261 	-0.024074986 	0.050642703 	2.0780728
0.00092462312 	-0.024074986 	0.050642703 	2.0780728
0.00094472362 	-0.025349818 	0.039455648 	2.0467409
0.00096482412 	-0.025349818 	0.039455648 	2.0467409
0.00098492462 	-0.025349818 	0.039455648 	2.0467409
0.0010050251 	-0.031386391 	0.035630579 	2.131644
0.0010251256 	-0.031386391 	0.035630579 	2.131644
0.0010452261 	-0.026575342 	0.038980071 	2.1108262
0.0010653266 	-0.02777904 	0.04704148 	2.1143332
0.0010854271 	-0.02777904 	0.04704148 	2.1143332
0.0011055276 	-0.02777904 	0.04704148 	2.1143332
0.0011256281 	-0.011022501 	0.046736606 	2.0681464
0.0011457286 	-0.026859989 	0.041748184 	2.0618602
0.0011658291 	-0.026859989 	0.041748184 	2.0618602
0.0011859296 	-0.037211073 	0.025665203 	2.0549121
0.0012060302 	-0.037211073 	0.025665203 	2.0549121
0.0012261307 	-0.037211073 	0.025665203 	2.0549121
0.0012462312 	-0.01929777 	0.0079760396 	2.028681
0.0012663317 	-0.01929777 	0.0079760396 	2.028681
0.0012864322 	-0.01929777 	0.0079760396 	2.028681
0.0013065327 	-0.023896149 	0.0013927266 	1.9677193
0.0013266332 	-0.023896149 	0.0013927266 	1.9677193
0.0013467337 	-0.023896149 	0.0013927266 	1.9677193
0.0013668342 	-0.028864718 	-0.0063128757 	1.9315929
0.0013869347 	-0.028864718 	-0.0063128757 	1.9315929
0.0014070352 	-0.028864718 	-0.0063128757 	1.9315929
0.0014271357 	-0.033704328 	-0.017947531 	1.9434023
0.0014472362 	-0.033704328 	-0.017947531 	1.9434023
0.0014673367 	-0.033704328 	-0.017947531 	1.9434023
0.0014874372 	-0.030714728 	-0.017574285 	1.9281792
0.0015075377 	-0.030714728 	-0.017574285 	1.9281792
0.0015276382 	-0.024046077 	0.0021839071 	1.9196592
0.0015477387 	-0.024046077 	0.0021839071 	1.9196592
0.0015678392 	-0.024046077 	0.0021839071 	1.9196592
0.0015879397 	-0.0088057029 	0.0029372391 	1.9443768
0.0016080402 	-0.0088057029 	0.0029372391 	1.9443768
0.0016281407 	-0.0088057029 	0.0029372391 	1.9443768
0.0016482412 	-0.0056751966 	-0.011026729 	1.9358491
0.0016683417 	-0.0056751966 	-0.011026729 	1.9358491
0.0016884422 	0.012809394 	-0.035105034 	1.9207585
0.0017085427 	0.012809394 	-0.035105034 	1.9207585
0.0017286432 	0.012809394 	-0.035105034 	1.9207585
0.0017487437 	0.0061586009 	-0.041722254 	1.9362807
0.0017688442 	0.0061586009 	-0.041722254 	1.9362807
0.0017889447 	0.0061586009 	-0.041722254 	1.9362807
0.0018090452 	-0.0019081704 	-0.038006004 	1.9229742
0.0018291457 	-0.0019081704 	-0.038006004 	1.9229742
0.0018492462 	0.0087876432 	-0.043014168 	1.9162294
0.0018693467 	0.0087876432 	-0.043014168 	1.9162294
0.0018894472 	0.0087876432 	-0.043014168 	1.9162294
0.0019095477 	0.020926236 	-0.036260934 	1.9025602
0.0019296482 	0.020926236 	-0.036260934 	1.9025602
0.0019497487 	0.021150158 	-0.051823156 	1.9097344
0.0019698492 	0.021150158 	-0.051823156 	1.9097344
0.0019899497 	0.021150158 	-0.051823156 	1.9097344
0.0020100503 	0.0096243478 	-0.075744717 	1.9275939
0.0020301508 	0.0096243478 	-0.075744717 	1.9275939
0.0020502513 	-0.005066891 	-0.070076677 	1.9228986
0.0020703518 	-0.005066891 	-0.070076677 	1.9228986
0.0020904523 	-0.0014953144 	-0.05037516 	1.9081028
0.0021105528 	-0.0014953144 	-0.05037516 	1.9081028
0.0021306533 	-0.0014953144 	-0.05037516 	1.9081028
0.0021507538 	0.018801926 	-0.05861028 	1.8894379
0.0021708543 	0.018801926 	-0.05861028 	1.8894379
0.0021909548 	0.037244663 	-0.067131354 	1.8697681
0.0022110553 	0.037244663 	-0.067131354 	1.8697681
0.0022311558 	0.044006097 	-0.051603709 	1.9042399
0.0022512563 	0.044006097 	-0.051603709 	1.9042399
0.0022713568 	0.042202902 	-0.069795646 	1.8923579
0.0022914573 	0.042202902 	-0.069795646 	1.8923579
0.0023115578 	0.042202902 	-0.069795646 	1.8923579
0.0023316583 	0.045631773 	-0.07726898 	1.859502
0.0023517588 	0.045631773 	-0.07726898 	1.859502
0.0023718593 	0.039271154 	-0.079914793 	1.8496223
0.0023919598 	0.039271154 	-0.079914793 	1.8496223
0.0024120603 	0.02545402 	-0.071410505 	1.8901285
0.0024321608 	0.02545402 	-0.071410505 	1.8901285
0.0024522613 	0.019429333 	-0.061714965 	1.8998822
0.0024723618 	0.019429333 	-0.061714965 	1.8998822
0.0024924623 	0.012267991 	-0.039628642 	1.8944742
0.0025125628 	0.012267991 	-0.039628642 	1.8944742
0.0025326633 	0.027334388 	-0.0074679175 	1.8895551
0.0025527638 	0.027334388 	-0.0074679175 	1.8895551
0.0025728643 	0.012970072 	2.8200805e-05 	1.9120602
0.0025929648 	0.012970072 	2.8200805e-05 	1.9120602
0.0026130653 	0.0017674992 	-0.020445527 	1.9221395
0.0026331658 	0.0017674992 	-0.020445527 	1.9221395
0.0026532663 	0.010832105 	-0.04730541 	1.8941294
0.0026733668 	0.010832105 	-0.04730541 	1.8941294
0.0026934673 	0.029532377 	-0.034523275 	1.8566018
0.0027135678 	0.029532377 	-0.034523275 	1.8566018
0.0027336683 	0.034680454 	-0.016432419 	1.8366555
0.0027537688 	0.034680454 	-0.016432419 	1.8366555
0.0027738693 	0.014665762 	0.068116456 	1.8067657
0.0027939698 	0.014665762 	0.068116456 	1.8067657
0.0028140704 	0.015691413 	0.031996359 	1.9196784
0.0028341709 	0.015691413 	0.031996359 	1.9196784
0.0028542714 	-0.0050780781 	-0.023090097 	2.0138498
0.0028743719 	-0.00011566821 	-0.051223683 	2.0032629
0.0028944724 	-0.00011566821 	-0.051223683 	2.0032629
0.0029145729 	-0.0088317079 	-0.022181583 	2.0422777
0.0029346734 	-0.0088317079 	-0.022181583 	2.0422777
0.0029547739 	0.0027723216 	0.044126575 	1.9968171
0.0029748744 	0.0027723216 	0.044126575 	1.9968171
0.0029949749 	0.034495923 	0.042502957 	1.9501415
0.0030150754 	0.021772936 	-0.012724352 	1.9270253
0.0030351759 	0.021772936 	-0.012724352 	1.9270253
0.0030552764 	0.047011768 	-0.064655521 	1.8963363
0.0030753769 	0.047011768 	-0.064655521 	1.8963363
0.0030954774 	0.054334372 	-0.050420995 	1.8995422
0.0031155779 	0.045158584 	0.023708772 	1.8836723
0.0031356784 	0.045158584 	0.023708772 	1.8836723
0.0031557789 	0.040272933 	0.10202358 	1.8429631
0.0031758794 	0.040272933 	0.10202358 	1.8429631
0.0031959799 	0.019593785 	0.10959603 	1.8120373
0.0032160804 	0.02619256 	0.096427565 	1.8563832
0.0032361809 	0.02619256 	0.096427565 	1.8563832
0.0032562814 	0.020679981 	0.060923892 	1.9162895
0.0032763819 	0.017179765 	0.029584127 	1.9671524
0.0032964824 	0.017179765 	0.029584127 	1.9671524
0.0033165829 	0.021055881 	-0.0078156511 	1.9033565
0.0033366834 	0.03134474 	-0.029997578 	1.795943
0.0033567839 	0.03134474 	-0.029997578 	1.795943
0.0033768844 	0.041801084 	-0.030307 	1.7469049
0.0033969849 	0.037309089 	-0.00784314 	1.7457817
0.0034170854 	0.037309089 	-0.00784314 	1.7457817
0.0034371859 	0.045296051 	0.013956089 	1.7563345
0.0034572864 	0.051633756 	-0.0044818154 	1.7596476
0.0034773869 	0.065511669 	-0.011940202 	1.7518723
0.0034974874 	0.065511669 	-0.011940202 	1.7518723
0.0035175879 	0.077435427 	0.0075460267 	1.7504048
0.0035376884 	0.085653032 	-0.0019392311 	1.711427
0.0035577889 	0.090762642 	0.0012033539 	1.6727761
0.0035778894 	0.090762642 	0.0012033539 	1.6727761
0.0035979899 	0.09969141 	0.040553765 	1.6733719
0.0036180905 	0.077980937 	0.083743086 	1.6937263
0.003638191 	0.06328438 	0.070496474 	1.7100323
0.0036582915 	0.06328438 	0.070496474 	1.7100323
0.003678392 	0.041057778 	0.018498695 	1.6933788
0.0036984925 	0.039398774 	-0.0067593967 	1.6820137
0.003718593 	0.026683241 	0.00096607058 	1.6801138
0.0037386935 	0.017969146 	0.048685236 	1.6993527
0.003758794 	0.044821938 	0.016700904 	1.655956
0.0037788945 	0.044821938 	0.016700904 	1.655956
0.003798995 	0.05024051 	-0.011233279 	1.5858223
0.0038190955 	0.055335598 	-0.013793351 	1.5313499
0.003839196 	0.037101246 	-0.11628058 	1.4744904
0.0038592965 	0.03890434 	-0.045212414 	1.3976626
0.003879397 	-0.0032717473 	-0.098593045 	1.3639305
0.0038994975 	0.0032565951 	-0.11518342 	1.2945507
0.003919598 	-0.014489457 	-0.044649483 	1.2945307
0.0039396985 	-0.043730595 	-0.026465826 	1.4680473
0.003959799 	-0.0092161577 	-0.056088254 	1.0879865
0.0039798995 	-0.011624777 	-0.063179947 	0.30805004
0.004 	-0.011624777 	-0.063179947 	0.30805004
