0 	0.0056625461 	0.0033380577 	2.0643594
2.0100503e-05 	0.0056625461 	0.0033380577 	2.0643594
4.0201005e-05 	0.0056625461 	0.0033380577 	2.0643594
6.0301508e-05 	0.017791653 	0.012235359 	2.0402893
8.040201e-05 	0.017791653 	0.012235359 	2.0402893
0.00010050251 	0.017791653 	0.012235359 	2.0402893
0.00012060302 	0.025710793 	0.0199099 	2.0502174
0.00014070352 	0.025710793 	0.0199099 	2.0502174
0.00016080402 	0.025710793 	0.0199099 	2.0502174
0.00018090452 	0.020439659 	0.030176002 	2.0805513
0.00020100503 	0.020439659 	0.030176002 	2.0805513
0.00022110553 	0.020439659 	0.030176002 	2.0805513
0.00024120603 	0.020163977 	0.023607328 	2.0929198
0.00026130653 	0.020163977 	0.023607328 	2.0929198
0.00028140704 	0.02536803 	0.0079300746 	2.0722537
0.00030150754 	0.02536803 	0.0079300746 	2.0722537
0.00032160804 	0.02536803 	0.0079300746 	2.0722537
0.00034170854 	0.031720376 	-0.0099918924 	2.0687951
0.00036180905 	0.031720376 	-0.0099918924 	2.0687951
0.00038190955 	0.031720376 	-0.0099918924 	2.0687951
0.00040201005 	0.039743973 	-0.018560424 	2.0641129
0.00042211055 	0.039743973 	-0.018560424 	2.0641129
0.00044221106 	0.039743973 	-0.018560424 	2.0641129
0.00046231156 	0.052653103 	-0.021932514 	2.0529883
0.00048241206 	0.052653103 	-0.021932514 	2.0529883
0.00050251256 	0.06650383 	-0.024559829 	2.0553851
0.00052261307 	0.06650383 	-0.024559829 	2.0553851
0.00054271357 	0.06650383 	-0.024559829 	2.0553851
0.00056281407 	0.074998292 	-0.029267619 	2.0499373
0.00058291457 	0.074998292 	-0.029267619 	2.0499373
0.00060301508 	0.074998292 	-0.029267619 	2.0499373
0.00062311558 	0.074822009 	-0.046420533 	2.0336255
0.00064321608 	0.074822009 	-0.046420533 	2.0336255
0.00066331658 	0.074822009 	-0.046420533 	2.0336255
0.00068341709 	0.051872274 	-0.058656633 	2.0165738
0.00070351759 	0.051872274 	-0.058656633 	2.0165738
0.00072361809 	0.044273815 	-0.062291426 	1.9714287
0.00074371859 	0.044273815 	-0.062291426 	1.9714287
0.0007638191 	0.044273815 	-0.062291426 	1.9714287
0.0007839196 	0.039200977 	-0.076096132 	1.9528171
0.0008040201 	0.039200977 	-0.076096132 	1.9528171
0.0008241206 	0.039200977 	-0.076096132 	1.9528171
0.00084422111 	0.038478602 	-0.067226533 	1.9614296
0.00086432161 	0.038478602 	-0.067226533 	1.9614296
0.00088442211 	0.038478602 	-0.067226533 	1.9614296
0.00090452261 	0.037653669 	-0.066378129 	1.942388
0.00092462312 	0.037653669 	-0.066378129 	1.942388
0.00094472362 	0.041058809 	-0.070565589 	1.9470008
0.00096482412 	0.041058809 	-0.070565589 	1.9470008
0.00098492462 	0.041058809 	-0.070565589 	1.9470008
0.0010050251 	0.035734665 	-0.052100004 	1.9556403
0.0010251256 	0.035734665 	-0.052100004 	1.9556403
0.0010452261 	0.035734665 	-0.052100004 	1.9556403
0.0010653266 	0.04122233 	-0.028393864 	1.9707574
0.0010854271 	0.04122233 	-0.028393864 	1.9707574
0.0011055276 	0.042780388 	-0.023508677 	2.0224427
0.0011256281 	0.045497863 	0.00082251319 	2.0311065
0.0011457286 	0.045497863 	0.00082251319 	2.0311065
0.0011658291 	0.045497863 	0.00082251319 	2.0311065
0.0011859296 	0.052521132 	0.023464372 	2.0439403
0.0012060302 	0.052521132 	0.023464372 	2.0439403
0.0012261307 	0.052521132 	0.023464372 	2.0439403
0.0012462312 	0.045913389 	0.03363844 	2.0569729
0.0012663317 	0.045913389 	0.03363844 	2.0569729
0.0012864322 	0.045913389 	0.03363844 	2.0569729
0.0013065327 	0.038242953 	0.036761965 	2.0524562
0.0013266332 	0.038242953 	0.036761965 	2.0524562
0.0013467337 	0.038242953 	0.036761965 	2.0524562
0.0013668342 	0.043103211 	0.05324021 	1.9965995
0.0013869347 	0.043103211 	0.05324021 	1.9965995
0.0014070352 	0.043103211 	0.05324021 	1.9965995
0.0014271357 	0.04912663 	0.054123817 	1.9882616
0.0014472362 	0.04912663 	0.054123817 	1.9882616
0.0014673367 	0.04912663 	0.054123817 	1.9882616
0.0014874372 	0.046304337 	0.062227555 	1.9997327
0.0015075377 	0.046304337 	0.062227555 	1.9997327
0.0015276382 	0.047048002 	0.067183771 	2.0181701
0.0015477387 	0.047048002 	0.067183771 	2.0181701
0.0015678392 	0.047048002 	0.067183771 	2.0181701
0.0015879397 	0.044523949 	0.063125912 	2.0518776
0.0016080402 	0.044523949 	0.063125912 	2.0518776
0.0016281407 	0.044523949 	0.063125912 	2.0518776
0.0016482412 	0.055720055 	0.04528423 	2.0173934
0.0016683417 	0.055720055 	0.04528423 	2.0173934
0.0016884422 	0.075145846 	0.029102415 	1.976303
0.0017085427 	0.075145846 	0.029102415 	1.976303
0.0017286432 	0.075145846 	0.029102415 	1.976303
0.0017487437 	0.060639381 	0.01222994 	1.9901194
0.0017688442 	0.060639381 	0.01222994 	1.9901194
0.0017889447 	0.060639381 	0.01222994 	1.9901194
0.0018090452 	0.054936127 	-0.0069227641 	1.9920774
0.0018291457 	0.054936127 	-0.0069227641 	1.9920774
0.0018492462 	0.054731087 	-0.016681416 	1.9689836
0.0018693467 	0.054731087 	-0.016681416 	1.9689836
0.0018894472 	0.054731087 	-0.016681416 	1.9689836
0.0019095477 	0.04667196 	-0.0066365626 	1.9977359
0.0019296482 	0.04667196 	-0.0066365626 	1.9977359
0.0019497487 	0.052656228 	-0.012044298 	2.0189601
0.0019698492 	0.052656228 	-0.012044298 	2.0189601
0.0019899497 	0.052656228 	-0.012044298 	2.0189601
0.0020100503 	0.071229235 	-0.019537192 	2.0372083
0.0020301508 	0.071229235 	-0.019537192 	2.0372083
0.0020502513 	0.086883424 	-0.019701716 	2.0129698
0.0020703518 	0.086883424 	-0.019701716 	2.0129698
0.0020904523 	0.092959272 	-0.025208176 	2.0013641
0.0021105528 	0.092959272 	-0.025208176 	2.0013641
0.0021306533 	0.092959272 	-0.025208176 	2.0013641
0.0021507538 	0.089586131 	-0.030362283 	2.0012589
0.0021708543 	0.089586131 	-0.030362283 	2.0012589
0.0021909548 	0.089193801 	-0.037370305 	1.9908145
0.0022110553 	0.089193801 	-0.037370305 	1.9908145
0.0022311558 	0.080762922 	-0.047887465 	2.0216702
0.0022512563 	0.080762922 	-0.047887465 	2.0216702
0.0022713568 	0.070618279 	-0.060003399 	2.0004141
0.0022914573 	0.070618279 	-0.060003399 	2.0004141
0.0023115578 	0.070618279 	-0.060003399 	2.0004141
0.0023316583 	0.079882735 	-0.071854127 	1.9873426
0.0023517588 	0.079882735 	-0.071854127 	1.9873426
0.0023718593 	0.082958151 	-0.080099322 	2.0031405
0.0023919598 	0.082958151 	-0.080099322 	2.0031405
0.0024120603 	0.093312941 	-0.072803225 	2.0092155
0.0024321608 	0.093312941 	-0.072803225 	2.0092155
0.0024522613 	0.10178044 	-0.068775738 	2.0236399
0.0024723618 	0.10178044 	-0.068775738 	2.0236399
0.0024924623 	0.089102249 	-0.070773254 	2.0617158
0.0025125628 	0.089102249 	-0.070773254 	2.0617158
0.0025326633 	0.083917861 	-0.051897742 	2.0398486
0.0025527638 	0.083917861 	-0.051897742 	2.0398486
0.0025728643 	0.075330432 	-0.027482317 	1.9910004
0.0025929648 	0.075330432 	-0.027482317 	1.9910004
0.0026130653 	0.05811904 	-0.024969601 	1.9799271
0.0026331658 	0.05811904 	-0.024969601 	1.9799271
0.0026532663 	0.048562163 	-0.0045166166 	1.9247337
0.0026733668 	0.048562163 	-0.0045166166 	1.9247337
0.0026934673 	0.050078424 	0.0012520499 	1.8766231
0.0027135678 	0.050078424 	0.0012520499 	1.8766231
0.0027336683 	0.046234188 	-0.014302826 	1.8728922
0.0027537688 	0.046234188 	-0.014302826 	1.8728922
0.0027738693 	0.055302349 	-0.0081315825 	1.8403385
0.0027939698 	0.055302349 	-0.0081315825 	1.8403385
0.0028140704 	0.064459231 	-0.036251491 	1.844577
0.0028341709 	0.064459231 	-0.036251491 	1.844577
0.0028542714 	0.070731704 	-0.055892644 	1.9029771
0.0028743719 	0.082421114 	-0.03139626 	1.9677392
0.0028944724 	0.082421114 	-0.03139626 	1.9677392
0.0029145729 	0.071486141 	-0.030916922 	1.9629229
0.0029346734 	0.071486141 	-0.030916922 	1.9629229
0.0029547739 	0.079792834 	-0.043329028 	1.9410524
0.0029748744 	0.079792834 	-0.043329028 	1.9410524
0.0029949749 	0.086376461 	-0.026487914 	1.9425454
0.0030150754 	0.098498279 	0.0073328625 	1.8706627
0.0030351759 	0.098498279 	0.0073328625 	1.8706627
0.0030552764 	0.1084524 	0.016194448 	1.7918368
0.0030753769 	0.1084524 	0.016194448 	1.7918368
0.0030954774 	0.11554024 	0.015280094 	1.8037182
0.0031155779 	0.11095964 	0.022462942 	1.8537249
0.0031356784 	0.11095964 	0.022462942 	1.8537249
0.0031557789 	0.089482297 	0.020873172 	1.8921595
0.0031758794 	0.089482297 	0.020873172 	1.8921595
0.0031959799 	0.056433662 	0.021478963 	1.9156395
0.0032160804 	0.033189955 	0.0052164299 	1.8761929
0.0032361809 	0.033189955 	0.0052164299 	1.8761929
0.0032562814 	0.030739837 	0.010017824 	1.8213815
0.0032763819 	0.048662677 	0.024551749 	1.8200705
0.0032964824 	0.048662677 	0.024551749 	1.8200705
0.0033165829 	0.063285453 	0.01250741 	1.8214897
0.0033366834 	0.06701006 	0.01024234 	1.8092721
0.0033567839 	0.06701006 	0.01024234 	1.8092721
0.0033768844 	0.077462564 	0.032649524 	1.7658786
0.0033969849 	0.083691548 	0.026824268 	1.7338867
0.0034170854 	0.083691548 	0.026824268 	1.7338867
0.0034371859 	0.079234069 	0.021319929 	1.7018253
0.0034572864 	0.074050531 	0.035043967 	1.6874143
0.0034773869 	0.071617093 	0.059492827 	1.6958067
0.0034974874 	0.071617093 	0.059492827 	1.6958067
0.0035175879 	0.071451984 	0.069533971 	1.7127134
0.0035376884 	0.075540359 	0.042671045 	1.7269236
0.0035577889 	0.081521269 	0.022726381 	1.7078616
0.0035778894 	0.081521269 	0.022726381 	1.7078616
0.0035979899 	0.088393228 	0.046629239 	1.6276357
0.0036180905 	0.097620002 	0.060549347 	1.6144371
0.003638191 	0.094769527 	0.094531076 	1.7013099
0.0036582915 	0.094769527 	0.094531076 	1.7013099
0.003678392 	0.096685375 	0.092917507 	1.8192593
0.0036984925 	0.10039938 	0.085235035 	1.8640509
0.003718593 	0.10203731 	0.063758917 	1.8065808
0.0037386935 	0.10496626 	0.074265982 	1.7181272
0.003758794 	0.12266296 	0.069821097 	1.6716039
0.0037788945 	0.12266296 	0.069821097 	1.6716039
0.003798995 	0.12378744 	0.052781431 	1.7040212
0.0038190955 	0.1259448 	-0.025823001 	1.8633247
0.003839196 	0.11635227 	-0.087104407 	1.975786
0.0038592965 	0.14232785 	-0.13594414 	1.839396
0.003879397 	0.10480696 	-0.12887052 	1.8595366
0.0038994975 	0.13379074 	0.0030070633 	1.6226167
0.003919598 	0.073228953 	0.17601393 	1.6314228
0.0039396985 	0.072337436 	0.19448038 	1.6303915
0.003959799 	0.05620195 	-0.11710944 	1.2282973
0.0039798995 	-0.021298392 	-0.014149364 	0.46842321
0.004 	-0.021298392 	-0.014149364 	0.46842321
