0 	-0.0037653097 	8.4526696e-05 	2.0574424
2.0100503e-05 	-0.0046325701 	-0.012147946 	2.0560644
4.0201005e-05 	-0.0046325701 	-0.012147946 	2.0560644
6.0301508e-05 	0.0098349194 	-0.014939742 	2.0761413
8.040201e-05 	0.0098349194 	-0.014939742 	2.0761413
0.00010050251 	0.0098349194 	-0.014939742 	2.0761413
0.00012060302 	0.018730003 	-0.002435399 	2.0782483
0.00014070352 	0.018730003 	-0.002435399 	2.0782483
0.00016080402 	0.018730003 	-0.002435399 	2.0782483
0.00018090452 	0.018856396 	0.00093746511 	2.0560066
0.00020100503 	0.018856396 	0.00093746511 	2.0560066
0.00022110553 	0.018856396 	0.00093746511 	2.0560066
0.00024120603 	0.020270849 	-0.010002334 	2.0518556
0.00026130653 	0.020270849 	-0.010002334 	2.0518556
0.00028140704 	0.01502915 	-0.021094315 	2.0433165
0.00030150754 	0.01502915 	-0.021094315 	2.0433165
0.00032160804 	0.01502915 	-0.021094315 	2.0433165
0.00034170854 	0.025309808 	-0.030871005 	2.0318709
0.00036180905 	0.025309808 	-0.030871005 	2.0318709
0.00038190955 	0.025309808 	-0.030871005 	2.0318709
0.00040201005 	0.034005283 	-0.024070342 	2.0424813
0.00042211055 	0.034005283 	-0.024070342 	2.0424813
0.00044221106 	0.034005283 	-0.024070342 	2.0424813
0.00046231156 	0.046338305 	0.0013138791 	2.0442387
0.00048241206 	0.046338305 	0.0013138791 	2.0442387
0.00050251256 	0.042111865 	0.0058441524 	2.0439663
0.00052261307 	0.042111865 	0.0058441524 	2.0439663
0.00054271357 	0.042111865 	0.0058441524 	2.0439663
0.00056281407 	0.047485186 	0.018568393 	2.0401962
0.00058291457 	0.047485186 	0.018568393 	2.0401962
0.00060301508 	0.047485186 	0.018568393 	2.0401962
0.00062311558 	0.046849405 	0.028289429 	2.0390926
0.00064321608 	0.046849405 	0.028289429 	2.0390926
0.00066331658 	0.046849405 	0.028289429 	2.0390926
0.00068341709 	0.05211162 	0.027300472 	2.0514452
0.00070351759 	0.05211162 	0.027300472 	2.0514452
0.00072361809 	0.040505414 	0.014679135 	2.0490486
0.00074371859 	0.040505414 	0.014679135 	2.0490486
0.0007638191 	0.040505414 	0.014679135 	2.0490486
0.0007839196 	0.03602006 	0.022435352 	2.0483744
0.0008040201 	0.03602006 	0.022435352 	2.0483744
0.0008241206 	0.03602006 	0.022435352 	2.0483744
0.00084422111 	0.030939664 	0.045419028 	2.0436684
0.00086432161 	0.030939664 	0.045419028 	2.0436684
0.00088442211 	0.030939664 	0.045419028 	2.0436684
0.00090452261 	0.04015471 	0.024700003 	2.0755588
0.00092462312 	0.04015471 	0.024700003 	2.0755588
0.00094472362 	0.020330262 	0.00870576 	2.0586913
0.00096482412 	0.020330262 	0.00870576 	2.0586913
0.00098492462 	0.020330262 	0.00870576 	2.0586913
0.0010050251 	0.026620676 	0.0061851535 	2.0292915
0.0010251256 	0.026620676 	0.0061851535 	2.0292915
0.0010452261 	0.026620676 	0.0061851535 	2.0292915
0.0010653266 	0.016791451 	0.03322075 	1.9487742
0.0010854271 	0.016791451 	0.03322075 	1.9487742
0.0011055276 	0.016791451 	0.03322075 	1.9487742
0.0011256281 	0.0027706852 	0.0057223725 	1.9382426
0.0011457286 	0.0027706852 	0.0057223725 	1.9382426
0.0011658291 	0.0027706852 	0.0057223725 	1.9382426
0.0011859296 	-0.008980369 	-0.022514994 	1.9778667
0.0012060302 	-0.008980369 	-0.022514994 	1.9778667
0.0012261307 	-0.008980369 	-0.022514994 	1.9778667
0.0012462312 	-0.012877725 	0.013677751 	1.9719168
0.0012663317 	-0.012877725 	0.013677751 	1.9719168
0.0012864322 	-0.012877725 	0.013677751 	1.9719168
0.0013065327 	-0.01391793 	-0.007556512 	1.9586584
0.0013266332 	-0.01391793 	-0.007556512 	1.9586584
0.0013467337 	-0.01391793 	-0.007556512 	1.9586584
0.0013668342 	-0.026460403 	-0.016089673 	1.9332063
0.0013869347 	-0.026460403 	-0.016089673 	1.9332063
0.0014070352 	-0.026460403 	-0.016089673 	1.9332063
0.0014271357 	-0.019898726 	-0.033307564 	1.9697706
0.0014472362 	-0.019898726 	-0.033307564 	1.9697706
0.0014673367 	-0.019898726 	-0.033307564 	1.9697706
0.0014874372 	-0.014123915 	-0.020500507 	1.9806843
0.0015075377 	-0.014123915 	-0.020500507 	1.9806843
0.0015276382 	-0.025196564 	-0.019188459 	2.0190216
0.0015477387 	-0.025196564 	-0.019188459 	2.0190216
0.0015678392 	-0.025196564 	-0.019188459 	2.0190216
0.0015879397 	-0.01940928 	-0.030681275 	1.9301279
0.0016080402 	-0.01940928 	-0.030681275 	1.9301279
0.0016281407 	-0.01940928 	-0.030681275 	1.9301279
0.0016482412 	-0.029717218 	-0.034478707 	1.9527281
0.0016683417 	-0.029717218 	-0.034478707 	1.9527281
0.0016884422 	-0.028369081 	-0.043764045 	1.9233635
0.0017085427 	-0.028369081 	-0.043764045 	1.9233635
0.0017286432 	-0.028369081 	-0.043764045 	1.9233635
0.0017487437 	-0.030461524 	-0.055010718 	1.9003937
0.0017688442 	-0.030461524 	-0.055010718 	1.9003937
0.0017889447 	-0.030461524 	-0.055010718 	1.9003937
0.0018090452 	-0.041300323 	-0.054004717 	1.8795718
0.0018291457 	-0.041300323 	-0.054004717 	1.8795718
0.0018492462 	-0.039404132 	-0.041292834 	1.8248888
0.0018693467 	-0.039404132 	-0.041292834 	1.8248888
0.0018894472 	-0.039404132 	-0.041292834 	1.8248888
0.0019095477 	-0.054137259 	-0.018245751 	1.8423629
0.0019296482 	-0.054137259 	-0.018245751 	1.8423629
0.0019497487 	-0.03884561 	-0.014719643 	1.8995204
0.0019698492 	-0.03884561 	-0.014719643 	1.8995204
0.0019899497 	-0.03884561 	-0.014719643 	1.8995204
0.0020100503 	-0.033150295 	-0.046977436 	1.8906995
0.0020301508 	-0.033150295 	-0.046977436 	1.8906995
0.0020502513 	-0.016392239 	-0.056086895 	1.9187618
0.0020703518 	-0.016392239 	-0.056086895 	1.9187618
0.0020904523 	0.0070237473 	-0.047929983 	1.8979698
0.0021105528 	0.0070237473 	-0.047929983 	1.8979698
0.0021306533 	0.0070237473 	-0.047929983 	1.8979698
0.0021507538 	0.011537365 	-0.047662186 	1.8582363
0.0021708543 	0.011537365 	-0.047662186 	1.8582363
0.0021909548 	0.0097703973 	-0.030548401 	1.8389576
0.0022110553 	0.0097703973 	-0.030548401 	1.8389576
0.0022311558 	-0.0010522975 	-0.030622699 	1.8556965
0.0022512563 	-0.0010522975 	-0.030622699 	1.8556965
0.0022713568 	0.0068148406 	-0.015419933 	1.8664773
0.0022914573 	0.0068148406 	-0.015419933 	1.8664773
0.0023115578 	0.0068148406 	-0.015419933 	1.8664773
0.0023316583 	0.016191747 	0.0074701671 	1.9283356
0.0023517588 	0.016191747 	0.0074701671 	1.9283356
0.0023718593 	0.0086752306 	-0.0066717894 	1.9415092
0.0023919598 	0.0086752306 	-0.0066717894 	1.9415092
0.0024120603 	0.0016961485 	-0.032487954 	1.9184795
0.0024321608 	0.0016961485 	-0.032487954 	1.9184795
0.0024522613 	0.006179476 	-0.040245696 	1.8785407
0.0024723618 	0.006179476 	-0.040245696 	1.8785407
0.0024924623 	-0.0031065056 	-0.054991253 	1.8785932
0.0025125628 	-0.0031065056 	-0.054991253 	1.8785932
0.0025326633 	-0.01272556 	-0.063896899 	1.8930412
0.0025527638 	-0.01272556 	-0.063896899 	1.8930412
0.0025728643 	-0.020435702 	-0.0595386 	1.8767046
0.0025929648 	-0.020435702 	-0.0595386 	1.8767046
0.0026130653 	-0.011835392 	-0.058533345 	1.8043588
0.0026331658 	-0.011835392 	-0.058533345 	1.8043588
0.0026532663 	-0.02342469 	-0.078154195 	1.7831249
0.0026733668 	-0.02342469 	-0.078154195 	1.7831249
0.0026934673 	-0.030120584 	-0.076057107 	1.8342978
0.0027135678 	-0.030120584 	-0.076057107 	1.8342978
0.0027336683 	-0.045297542 	-0.0092781732 	1.8727059
0.0027537688 	-0.045297542 	-0.0092781732 	1.8727059
0.0027738693 	-0.06764302 	0.019712291 	1.9068127
0.0027939698 	-0.06764302 	0.019712291 	1.9068127
0.0028140704 	-0.077568759 	0.0084324669 	1.8765216
0.0028341709 	-0.077568759 	0.0084324669 	1.8765216
0.0028542714 	-0.077565396 	0.0073012854 	1.8209998
0.0028743719 	-0.057923692 	0.010523839 	1.7978537
0.0028944724 	-0.057923692 	0.010523839 	1.7978537
0.0029145729 	-0.039395972 	0.022325088 	1.7701255
0.0029346734 	-0.039395972 	0.022325088 	1.7701255
0.0029547739 	-0.023591916 	0.015134315 	1.7421327
0.0029748744 	-0.023591916 	0.015134315 	1.7421327
0.0029949749 	-0.010643481 	0.0062009131 	1.694344
0.0030150754 	-0.015428441 	0.020262001 	1.6794372
0.0030351759 	-0.015428441 	0.020262001 	1.6794372
0.0030552764 	-0.025133581 	0.066552474 	1.7036627
0.0030753769 	-0.025133581 	0.066552474 	1.7036627
0.0030954774 	-0.030205679 	0.080561216 	1.7215504
0.0031155779 	-0.020753386 	0.041237231 	1.7364316
0.0031356784 	-0.020753386 	0.041237231 	1.7364316
0.0031557789 	-0.018636438 	0.016820313 	1.7878826
0.0031758794 	-0.018636438 	0.016820313 	1.7878826
0.0031959799 	-0.032971827 	0.031227441 	1.8024046
0.0032160804 	-0.043607879 	0.033663847 	1.7518587
0.0032361809 	-0.043607879 	0.033663847 	1.7518587
0.0032562814 	-0.046052398 	0.0089254868 	1.7388004
0.0032763819 	-0.045091991 	-0.009323548 	1.7357475
0.0032964824 	-0.045091991 	-0.009323548 	1.7357475
0.0033165829 	-0.025396718 	-0.028316407 	1.6850588
0.0033366834 	-0.010365325 	-0.030623397 	1.6360047
0.0033567839 	-0.010365325 	-0.030623397 	1.6360047
0.0033768844 	-0.0003882423 	-0.029024003 	1.631736
0.0033969849 	0.0058655904 	-0.033440257 	1.6487422
0.0034170854 	0.0058655904 	-0.033440257 	1.6487422
0.0034371859 	0.011529511 	-0.039051573 	1.6630372
0.0034572864 	0.011137475 	-0.028476082 	1.6706153
0.0034773869 	0.017811587 	-0.021956606 	1.6608905
0.0034974874 	0.017811587 	-0.021956606 	1.6608905
0.0035175879 	0.017387467 	-0.025117191 	1.6180409
0.0035376884 	0.025754481 	-0.037814077 	1.5778194
0.0035577889 	0.031940693 	-0.074567032 	1.5785385
0.0035778894 	0.031940693 	-0.074567032 	1.5785385
0.0035979899 	0.03191965 	-0.08619559 	1.6183604
0.0036180905 	0.026124597 	-0.043947059 	1.6539015
0.003638191 	0.028956452 	-0.014458677 	1.6644169
0.0036582915 	0.028956452 	-0.014458677 	1.6644169
0.003678392 	0.030324061 	-0.025678914 	1.653663
0.0036984925 	0.03673176 	0.015137896 	1.6011065
0.003718593 	0.040188457 	0.067199296 	1.5904072
0.0037386935 	0.040507019 	0.037997249 	1.5898223
0.003758794 	0.049691541 	-0.0010203681 	1.5838116
0.0037788945 	0.049691541 	-0.0010203681 	1.5838116
0.003798995 	0.04768779 	-0.038889904 	1.5670269
0.0038190955 	0.037311947 	-0.046218246 	1.5194035
0.003839196 	0.010865794 	-0.0052355508 	1.4848857
0.0038592965 	-0.012600407 	0.0068962916 	1.5551027
0.003879397 	-0.019619127 	0.010493111 	1.6479714
0.0038994975 	-0.017464866 	-0.019528966 	1.5099729
0.003919598 	-0.015955366 	0.25245785 	1.4175741
0.0039396985 	-0.048956681 	0.25997063 	1.0897219
0.003959799 	-0.0060704658 	-0.010977953 	0.92961537
0.0039798995 	-0.00051860658 	-0.09664707 	0.33140284
0.004 	-0.00051860658 	-0.09664707 	0.33140284
