0 	0.045357478 	-0.0021579492 	2.0175738
2.0100503e-05 	0.0018796998 	0.038040825 	2.0285397
4.0201005e-05 	0.0018796998 	0.038040825 	2.0285397
6.0301508e-05 	-0.012648463 	0.018140375 	2.0219933
8.040201e-05 	-0.012648463 	0.018140375 	2.0219933
0.00010050251 	-0.012648463 	0.018140375 	2.0219933
0.00012060302 	-0.012466988 	-0.0068337535 	2.001702
0.00014070352 	-0.012466988 	-0.0068337535 	2.001702
0.00016080402 	-0.012466988 	-0.0068337535 	2.001702
0.00018090452 	-0.014899324 	-0.0088239728 	2.0222795
0.00020100503 	-0.014899324 	-0.0088239728 	2.0222795
0.00022110553 	-0.014899324 	-0.0088239728 	2.0222795
0.00024120603 	-0.022886202 	0.0099068736 	2.0295301
0.00026130653 	-0.022886202 	0.0099068736 	2.0295301
0.00028140704 	-0.026090782 	0.023207068 	2.0235692
0.00030150754 	-0.026090782 	0.023207068 	2.0235692
0.00032160804 	-0.026090782 	0.023207068 	2.0235692
0.00034170854 	-0.033174594 	0.025907581 	2.0375788
0.00036180905 	-0.033174594 	0.025907581 	2.0375788
0.00038190955 	-0.033174594 	0.025907581 	2.0375788
0.00040201005 	-0.028731948 	0.022271524 	2.0570648
0.00042211055 	-0.028731948 	0.022271524 	2.0570648
0.00044221106 	-0.028731948 	0.022271524 	2.0570648
0.00046231156 	-0.022500687 	0.0054353312 	2.073106
0.00048241206 	-0.022500687 	0.0054353312 	2.073106
0.00050251256 	-0.024961079 	-0.010047223 	2.093234
0.00052261307 	-0.024961079 	-0.010047223 	2.093234
0.00054271357 	-0.024961079 	-0.010047223 	2.093234
0.00056281407 	-0.035914481 	-0.012580864 	2.0685894
0.00058291457 	-0.035914481 	-0.012580864 	2.0685894
0.00060301508 	-0.035914481 	-0.012580864 	2.0685894
0.00062311558 	-0.043429538 	0.0082752745 	2.0435648
0.00064321608 	-0.043429538 	0.0082752745 	2.0435648
0.00066331658 	-0.043429538 	0.0082752745 	2.0435648
0.00068341709 	-0.037409372 	0.022700905 	2.0553319
0.00070351759 	-0.037409372 	0.022700905 	2.0553319
0.00072361809 	-0.03471365 	0.018391954 	2.0712561
0.00074371859 	-0.03471365 	0.018391954 	2.0712561
0.0007638191 	-0.03471365 	0.018391954 	2.0712561
0.0007839196 	-0.027794789 	0.0080419741 	2.0535235
0.0008040201 	-0.027794789 	0.0080419741 	2.0535235
0.0008241206 	-0.027794789 	0.0080419741 	2.0535235
0.00084422111 	-0.021214811 	-0.004279427 	2.0546906
0.00086432161 	-0.021214811 	-0.004279427 	2.0546906
0.00088442211 	-0.021214811 	-0.004279427 	2.0546906
0.00090452261 	0.00040938961 	-0.00087864283 	2.1053536
0.00092462312 	0.00040938961 	-0.00087864283 	2.1053536
0.00094472362 	0.0056865822 	0.0015025093 	2.0293584
0.00096482412 	0.0056865822 	0.0015025093 	2.0293584
0.00098492462 	0.0056865822 	0.0015025093 	2.0293584
0.0010050251 	0.056672127 	-0.022651815 	2.0963299
0.0010251256 	0.056672127 	-0.022651815 	2.0963299
0.0010452261 	0.056672127 	-0.022651815 	2.0963299
0.0010653266 	0.035102458 	-0.022663392 	2.1170601
0.0010854271 	0.035102458 	-0.022663392 	2.1170601
0.0011055276 	0.035102458 	-0.022663392 	2.1170601
0.0011256281 	0.025629937 	-0.016518675 	2.1619283
0.0011457286 	0.025629937 	-0.016518675 	2.1619283
0.0011658291 	0.025629937 	-0.016518675 	2.1619283
0.0011859296 	0.0091747929 	0.00090886659 	2.0862365
0.0012060302 	0.0091747929 	0.00090886659 	2.0862365
0.0012261307 	0.0091747929 	0.00090886659 	2.0862365
0.0012462312 	-0.00010287573 	0.036237293 	1.9612646
0.0012663317 	-0.00010287573 	0.036237293 	1.9612646
0.0012864322 	-0.00010287573 	0.036237293 	1.9612646
0.0013065327 	-0.011406779 	0.032492533 	1.9109456
0.0013266332 	-0.011406779 	0.032492533 	1.9109456
0.0013467337 	-0.011406779 	0.032492533 	1.9109456
0.0013668342 	-0.011445776 	0.015142706 	1.9611484
0.0013869347 	-0.011445776 	0.015142706 	1.9611484
0.0014070352 	-0.011445776 	0.015142706 	1.9611484
0.0014271357 	0.0017761241 	-0.0022697786 	2.0184726
0.0014472362 	0.0017761241 	-0.0022697786 	2.0184726
0.0014673367 	0.0017761241 	-0.0022697786 	2.0184726
0.0014874372 	0.01314977 	-0.0035455048 	2.0259596
0.0015075377 	0.01314977 	-0.0035455048 	2.0259596
0.0015276382 	0.035568255 	-0.015307135 	2.0529071
0.0015477387 	0.035568255 	-0.015307135 	2.0529071
0.0015678392 	0.035568255 	-0.015307135 	2.0529071
0.0015879397 	0.057196634 	0.0082604265 	2.0607236
0.0016080402 	0.057196634 	0.0082604265 	2.0607236
0.0016281407 	0.057196634 	0.0082604265 	2.0607236
0.0016482412 	0.083756765 	0.022634638 	2.0567071
0.0016683417 	0.083756765 	0.022634638 	2.0567071
0.0016884422 	0.074861017 	-0.0050751717 	2.0428076
0.0017085427 	0.074861017 	-0.0050751717 	2.0428076
0.0017286432 	0.074861017 	-0.0050751717 	2.0428076
0.0017487437 	0.058459995 	0.013328862 	2.0706103
0.0017688442 	0.058459995 	0.013328862 	2.0706103
0.0017889447 	0.058459995 	0.013328862 	2.0706103
0.0018090452 	0.064245855 	0.032501429 	2.0490971
0.0018291457 	0.064245855 	0.032501429 	2.0490971
0.0018492462 	0.047841276 	0.042230601 	1.9997941
0.0018693467 	0.047841276 	0.042230601 	1.9997941
0.0018894472 	0.047841276 	0.042230601 	1.9997941
0.0019095477 	0.033538704 	0.069003266 	1.9460534
0.0019296482 	0.033538704 	0.069003266 	1.9460534
0.0019497487 	0.027573411 	0.068941478 	1.9258292
0.0019698492 	0.027573411 	0.068941478 	1.9258292
0.0019899497 	0.027573411 	0.068941478 	1.9258292
0.0020100503 	-0.0012496155 	0.059260082 	1.9312592
0.0020301508 	-0.0012496155 	0.059260082 	1.9312592
0.0020502513 	-0.0049203158 	0.045042604 	1.9264195
0.0020703518 	-0.0049203158 	0.045042604 	1.9264195
0.0020904523 	-0.012564002 	0.024463418 	1.8709661
0.0021105528 	-0.012564002 	0.024463418 	1.8709661
0.0021306533 	-0.012564002 	0.024463418 	1.8709661
0.0021507538 	-0.0038157639 	0.025514122 	1.8171003
0.0021708543 	-0.0038157639 	0.025514122 	1.8171003
0.0021909548 	0.0082327938 	-0.016004206 	1.8191487
0.0022110553 	0.0082327938 	-0.016004206 	1.8191487
0.0022311558 	-0.0041074455 	-0.055925193 	1.843701
0.0022512563 	-0.0041074455 	-0.055925193 	1.843701
0.0022713568 	-0.016077986 	-0.070662269 	1.83388
0.0022914573 	-0.016077986 	-0.070662269 	1.83388
0.0023115578 	-0.016077986 	-0.070662269 	1.83388
0.0023316583 	-0.024129482 	-0.051554044 	1.8118344
0.0023517588 	-0.024129482 	-0.051554044 	1.8118344
0.0023718593 	-0.019203849 	-0.032721622 	1.810948
0.0023919598 	-0.019203849 	-0.032721622 	1.810948
0.0024120603 	-0.013053485 	-0.005026669 	1.8196365
0.0024321608 	-0.013053485 	-0.005026669 	1.8196365
0.0024522613 	-0.0013960993 	-0.0057225897 	1.8420345
0.0024723618 	-0.0013960993 	-0.0057225897 	1.8420345
0.0024924623 	-0.0043919893 	-0.0073436714 	1.8552065
0.0025125628 	-0.0043919893 	-0.0073436714 	1.8552065
0.0025326633 	0.0077530252 	-0.017126227 	1.8138506
0.0025527638 	0.0077530252 	-0.017126227 	1.8138506
0.0025728643 	0.0054769566 	0.0021330394 	1.808035
0.0025929648 	0.0054769566 	0.0021330394 	1.808035
0.0026130653 	0.010042227 	0.038020462 	1.8331956
0.0026331658 	0.010042227 	0.038020462 	1.8331956
0.0026532663 	0.001856575 	0.049499518 	1.8308287
0.0026733668 	0.001856575 	0.049499518 	1.8308287
0.0026934673 	0.0091920353 	0.035844475 	1.8094124
0.0027135678 	0.0091920353 	0.035844475 	1.8094124
0.0027336683 	0.0085942346 	0.026939401 	1.7326636
0.0027537688 	0.0085942346 	0.026939401 	1.7326636
0.0027738693 	0.00089433837 	0.033198252 	1.7489806
0.0027939698 	0.00089433837 	0.033198252 	1.7489806
0.0028140704 	-0.015549944 	0.047875545 	1.8350065
0.0028341709 	-0.015549944 	0.047875545 	1.8350065
0.0028542714 	-0.0398271 	0.035983402 	1.829362
0.0028743719 	-0.039341376 	0.0005836453 	1.8049223
0.0028944724 	-0.039341376 	0.0005836453 	1.8049223
0.0029145729 	-0.034912088 	-0.00126318 	1.7799615
0.0029346734 	-0.034912088 	-0.00126318 	1.7799615
0.0029547739 	-0.034166204 	-0.009758271 	1.7437186
0.0029748744 	-0.034166204 	-0.009758271 	1.7437186
0.0029949749 	-0.040528398 	-0.028555351 	1.7868476
0.0030150754 	-0.043416581 	-0.027240107 	1.8274821
0.0030351759 	-0.043416581 	-0.027240107 	1.8274821
0.0030552764 	-0.038059059 	-0.013208485 	1.8458934
0.0030753769 	-0.038059059 	-0.013208485 	1.8458934
0.0030954774 	-0.031315831 	0.024361182 	1.8295839
0.0031155779 	-0.022333512 	0.077381478 	1.8297427
0.0031356784 	-0.022333512 	0.077381478 	1.8297427
0.0031557789 	-0.016598239 	0.10816395 	1.8521902
0.0031758794 	-0.016598239 	0.10816395 	1.8521902
0.0031959799 	-0.015548617 	0.1187243 	1.8646218
0.0032160804 	-0.013727905 	0.12563107 	1.8275109
0.0032361809 	-0.013727905 	0.12563107 	1.8275109
0.0032562814 	-0.01630092 	0.089527184 	1.7872635
0.0032763819 	-0.02183575 	0.043966863 	1.7566608
0.0032964824 	-0.02183575 	0.043966863 	1.7566608
0.0033165829 	-0.015530576 	0.037562677 	1.7302829
0.0033366834 	-0.0019022748 	0.036125598 	1.7267496
0.0033567839 	-0.0019022748 	0.036125598 	1.7267496
0.0033768844 	0.012913701 	0.028538735 	1.7054821
0.0033969849 	0.029747195 	0.038674797 	1.6727091
0.0034170854 	0.029747195 	0.038674797 	1.6727091
0.0034371859 	0.043487763 	0.010613323 	1.6970075
0.0034572864 	0.055090039 	-0.013377088 	1.6632534
0.0034773869 	0.05762475 	-0.044551269 	1.6755044
0.0034974874 	0.05762475 	-0.044551269 	1.6755044
0.0035175879 	0.048592483 	-0.07695797 	1.7437923
0.0035376884 	0.050555637 	-0.11375152 	1.7837973
0.0035577889 	0.04619241 	-0.11549725 	1.7627665
0.0035778894 	0.04619241 	-0.11549725 	1.7627665
0.0035979899 	0.032313182 	-0.086530148 	1.6796252
0.0036180905 	0.010757329 	-0.037166562 	1.6909864
0.003638191 	-0.0079138977 	0.017949073 	1.7484058
0.0036582915 	-0.0079138977 	0.017949073 	1.7484058
0.003678392 	-0.0099995567 	0.12454064 	1.7529708
0.0036984925 	-0.00066808894 	0.22975043 	1.7028396
0.003718593 	-0.013929292 	0.32203105 	1.6106366
0.0037386935 	-0.029583759 	0.23453504 	1.5146011
0.003758794 	-0.030680182 	0.11328645 	1.4777023
0.0037788945 	-0.030680182 	0.11328645 	1.4777023
0.003798995 	-0.049380395 	-0.0053883062 	1.4325879
0.0038190955 	-0.059282684 	-0.012159479 	1.3600959
0.003839196 	-0.063042567 	-0.0026732366 	1.356423
0.0038592965 	-0.047990616 	-0.056337441 	1.3443495
0.003879397 	-0.046502322 	0.030312746 	1.2569313
0.0038994975 	-0.052381529 	0.12084217 	1.1565171
0.003919598 	-0.068305803 	-0.010806815 	1.0595608
0.0039396985 	-0.015237298 	-0.074320922 	1.0644958
0.003959799 	-0.030647063 	-0.036755691 	1.0867929
0.0039798995 	0.024726402 	-0.080802685 	0.4838852
0.004 	0.024726402 	-0.080802685 	0.4838852
